emg_rms_0,emg_rms_1,emg_rms_2,emg_rms_3,emg_rms_4,emg_rms_5,emg_rms_6,emg_rms_7,emg_mean_0,emg_mean_1,emg_mean_2,emg_mean_3,emg_mean_4,emg_mean_5,emg_mean_6,emg_mean_7,emg_var_0,emg_var_1,emg_var_2,emg_var_3,emg_var_4,emg_var_5,emg_var_6,emg_var_7,label
54.14286656615071,11.213830746002902,9.052623929005335,6.928203230275509,6.822756041366275,11.926860441876563,45.56369168537598,58.04179528581107,-2.35,0.95,-0.35,0.4,1.25,1.15,3.55,23.85,2925.9275000000002,124.84750000000001,81.8275,47.839999999999996,44.9875,140.92749999999998,2063.4475,2800.0274999999997,0
2.6076809620810595,5.873670062235365,2.6457513110645907,1.4832396974191326,1.161895003862225,1.396424004376894,1.6278820596099706,10.084641788382967,-0.5,0.5,0.1,-0.5,-0.75,-0.85,-0.85,-0.1,6.55,34.25,6.99,1.95,0.7875,1.2274999999999998,1.9274999999999998,101.68999999999998,0
2.5099800796022267,6.111464636239009,3.170173496829472,1.7175564037317668,1.51657508881031,1.6733200530681511,1.5,13.36413109783049,-0.6,-1.15,-0.85,-1.05,-1.0,-0.8,-0.75,0.6,5.9399999999999995,36.027499999999996,9.327499999999999,1.8475000000000006,1.3,2.1599999999999997,1.6875,178.24,0
1.91049731745428,6.024948132556827,3.0495901363953815,1.8027756377319946,1.5652475842498528,1.449137674618944,1.4832396974191326,12.200409829181968,-0.65,-3.0,-0.8,-1.25,-1.25,-0.5,-1.0,0.35,3.2275,27.3,8.66,1.6875,0.8875,1.85,1.2,148.7275,0
1.7320508075688772,4.0,2.5,1.3038404810405297,1.396424004376894,1.378404875209022,2.247220505424423,10.074720839804943,-1.0,-1.9,-0.25,-0.7,-1.15,-1.0,-1.45,-2.7,2.0,12.390000000000002,6.1875,1.2099999999999997,0.6275000000000002,0.9,2.9475000000000007,94.21000000000001,0
2.2693611435820435,4.924428900898052,2.0976176963403033,1.8027756377319946,1.5,1.4832396974191326,1.6583123951777,7.602631123499285,-1.05,-0.75,-1.0,-0.85,-0.95,-1.0,-0.85,1.7,4.047499999999999,23.6875,3.4,2.5275000000000003,1.3475000000000004,1.2,2.0275000000000003,54.90999999999999,0
2.073644135332772,4.969909455915671,2.073644135332772,1.7175564037317668,1.378404875209022,1.4317821063276353,1.6278820596099706,9.327379053088816,-0.6,-0.2,-1.2,-0.65,-0.6,-0.85,-0.65,2.7,3.939999999999999,24.659999999999993,2.86,2.5275,1.54,1.3275000000000001,2.2275,79.71000000000001,0
2.539685019840059,5.634713834792322,2.8284271247461903,1.449137674618944,1.378404875209022,1.5,1.8708286933869707,10.707474025184466,-1.05,-1.95,-0.8,-0.9,-0.7,-0.85,-0.8,-0.45,5.3475,27.9475,7.360000000000001,1.2900000000000005,1.4100000000000004,1.5275000000000003,2.8600000000000003,114.44750000000002,0
2.4596747752497685,6.164414002968976,3.40587727318528,1.6881943016134133,1.51657508881031,1.5652475842498528,1.6431676725154984,9.67987603226405,-1.05,-2.2,-0.4,-1.35,-1.0,-0.75,-0.9,-1.4,4.9475,33.160000000000004,11.440000000000001,1.0274999999999999,1.3,1.8875,1.89,91.74000000000002,0
1.6881943016134133,5.113707070218238,3.556683848755748,1.6881943016134133,1.7888543819998317,1.6733200530681511,1.8027756377319946,7.628892449104261,-0.95,-1.95,-1.25,-1.05,-1.2,-0.8,-0.85,0.6,1.9475000000000002,22.347499999999997,11.0875,1.7474999999999998,1.7600000000000002,2.1600000000000006,2.5275000000000007,57.83999999999999,0
2.3130067012440754,6.212889826803627,2.898275349237888,1.6278820596099706,1.8841443681416772,1.8973665961010275,2.6551836094703507,7.0710678118654755,-0.85,-1.8,-1.5,-0.95,-1.35,-0.6,-1.05,-1.1,4.6274999999999995,35.36,6.15,1.7474999999999998,1.7275000000000003,3.2400000000000007,5.9475,48.79,0
2.32379000772445,6.971370023173351,2.2135943621178655,1.70293863659264,1.6431676725154984,2.0976176963403033,2.692582403567252,7.582875444051551,-0.4,0.2,-0.8,-0.9,-0.9,-0.8,-0.95,-2.8,5.239999999999999,48.56000000000001,4.260000000000001,2.0900000000000007,1.89,3.7599999999999993,6.3475,49.66000000000002,0
1.9748417658131499,4.494441010848846,2.3874672772626644,1.61245154965971,1.449137674618944,1.6881943016134133,1.4832396974191326,9.833615815151617,-0.6,0.4,-0.6,-0.9,-0.9,-0.75,-0.1,-1.1,3.54,20.040000000000003,5.339999999999999,1.7900000000000003,1.2900000000000005,2.2875,2.1900000000000004,95.48999999999998,0
2.202271554554524,4.306971093471606,2.29128784747792,1.118033988749895,1.61245154965971,1.857417562100671,2.085665361461421,12.357184145265457,-0.55,-1.35,-0.75,-0.75,-1.1,-0.55,-0.45,-0.5,4.547500000000001,16.7275,4.6875,0.6875,1.3900000000000001,3.147500000000001,4.1475,152.45,0
1.6733200530681511,3.721558813185679,2.924038303442689,1.2449899597988732,1.61245154965971,1.6881943016134133,2.4596747752497685,9.583840566286565,-0.2,-1.55,-0.85,-0.65,-1.1,-0.65,-1.15,0.75,2.76,11.447499999999998,7.827499999999998,1.1275,1.3900000000000001,2.4274999999999998,4.727500000000001,91.2875,0
1.8439088914585775,4.738143096192854,3.5071355833500366,1.224744871391589,1.4317821063276353,1.5491933384829668,1.9364916731037085,6.0332412515993425,-0.6,-2.05,-0.8,-0.7,-0.95,-0.8,-0.85,0.8,3.04,18.2475,11.66,1.0099999999999998,1.1475,1.7600000000000002,3.0274999999999994,35.760000000000005,0
1.9621416870348585,5.352569476429054,3.8987177379235853,1.1832159566199232,1.3416407864998738,1.466287829861518,1.224744871391589,8.862843787408192,-1.15,-1.45,-0.3,-0.6,-0.7,-0.35,-0.5,-2.95,2.5275000000000003,26.547499999999996,15.11,1.0400000000000003,1.31,2.0275,1.25,69.84750000000001,0
1.3601470508735443,4.141255848169731,3.4856850115866753,1.466287829861518,1.3416407864998738,1.0723805294763609,1.5491933384829668,9.692780818733084,-0.75,0.45,-0.35,-0.75,-0.6,0.05,-0.9,-3.25,1.2875,16.9475,12.0275,1.5875,1.44,1.1474999999999997,1.5900000000000003,83.3875,0
1.8303005217723127,4.236744032862972,2.4596747752497685,1.6278820596099706,1.70293863659264,1.7175564037317668,3.2015621187164243,6.418722614352485,-0.65,0.15,-0.85,-1.05,-1.0,-0.45,-1.75,-1.7,2.9274999999999998,17.927500000000002,5.3275,1.5474999999999999,1.9,2.7475,7.1875,38.30999999999999,0
1.9874606914351791,4.376071297408213,2.1330729007701543,1.6431676725154984,1.8708286933869707,2.0371548787463363,3.3391615714128,5.991660871578097,-0.65,-1.05,-0.85,-1.2,-1.2,-0.85,-1.55,-1.7,3.527499999999999,18.047500000000003,3.8274999999999983,1.2600000000000002,2.06,3.4274999999999998,8.7475,33.010000000000005,0
2.224859546128699,5.244044240850758,2.6739483914241875,1.2649110640673518,1.378404875209022,1.5968719422671311,2.202271554554524,9.077444574328174,-0.35,-0.8,-1.65,-0.7,-0.8,-0.65,-0.45,-1.1,4.8275,26.860000000000003,4.427499999999999,1.1099999999999999,1.2600000000000002,2.1274999999999995,4.647500000000001,81.18999999999998,0
2.280350850198276,4.78539444560216,2.6551836094703507,1.2041594578792296,1.466287829861518,1.0723805294763609,2.0976176963403033,10.131633629380802,-0.2,0.2,-1.35,-0.45,-0.85,-0.65,-0.5,-0.15,5.16,22.860000000000007,5.2275,1.2475,1.4274999999999998,0.7275,4.15,102.62749999999998,0
1.9364916731037085,4.2130748865881795,1.8439088914585775,1.4317821063276353,1.4142135623730951,1.1832159566199232,1.6733200530681511,10.959014554237985,-0.25,-0.05,-0.7,-0.55,-0.9,-0.8,-0.3,2.2,3.6875,17.7475,2.9100000000000015,1.7474999999999998,1.1900000000000002,0.7600000000000001,2.71,115.26000000000002,0
1.816590212458495,4.049691346263317,2.073644135332772,1.378404875209022,1.118033988749895,1.466287829861518,2.0615528128088303,13.080519867344723,-0.3,0.2,-0.6,-0.6,-0.75,-0.75,-0.35,0.2,3.210000000000001,16.36,3.9400000000000004,1.5400000000000005,0.6875,1.5875,4.1274999999999995,171.06,0
1.61245154965971,4.5,2.6739483914241875,1.161895003862225,1.2649110640673518,1.2649110640673518,2.1095023109728985,11.43241006962224,-0.2,0.65,-0.85,-0.45,-0.7,-0.5,-0.75,-2.8,2.56,19.827500000000004,6.4275,1.1475,1.1099999999999999,1.35,3.8875,122.85999999999999,0
1.5811388300841898,4.571651780264984,2.4596747752497685,1.4317821063276353,1.466287829861518,0.8944271909999159,1.5811388300841898,7.791020472312982,-0.4,-0.2,-1.35,-0.55,-0.95,-0.5,-0.6,-1.7,2.34,20.859999999999996,4.227499999999999,1.7475,1.2475,0.55,2.1399999999999997,57.81,0
1.7748239349298849,3.8275318418009276,2.3664319132398464,1.51657508881031,1.396424004376894,1.2041594578792296,1.51657508881031,9.35681569766125,-0.65,-0.25,-1.0,-0.6,-0.95,-0.55,-0.4,-0.25,2.7275,14.5875,4.6,1.9400000000000002,1.0474999999999999,1.1475000000000002,2.1399999999999997,87.4875,0
1.6733200530681511,3.383784863137726,2.756809750418044,1.61245154965971,1.378404875209022,1.1832159566199232,1.3228756555322954,9.436630754670864,-0.4,0.55,-0.7,-0.7,-0.9,-0.4,-0.55,-0.95,2.6399999999999997,11.147500000000003,7.110000000000001,2.1100000000000003,1.0900000000000003,1.2399999999999998,1.4474999999999998,88.14750000000001,0
1.91049731745428,4.669047011971501,2.4899799195977463,1.6881943016134133,1.3228756555322954,1.2649110640673518,1.2449899597988732,9.02219485491197,-0.55,-1.1,-1.0,-0.85,-0.85,-0.8,-0.85,-1.6,3.3475,20.59,5.2,2.1275,1.0275000000000003,0.96,0.8275000000000002,78.84,0
1.9235384061671346,4.538722287164087,2.247220505424423,1.3416407864998738,1.224744871391589,1.746424919657298,1.3038404810405297,8.757853618324527,-0.6,-1.3,-0.75,-0.8,-0.8,-1.05,-0.7,-0.3,3.34,18.910000000000004,4.4875,1.16,0.86,1.9474999999999998,1.2099999999999995,76.61000000000001,0
1.5968719422671311,2.8460498941515415,1.8439088914585775,1.61245154965971,1.378404875209022,1.6278820596099706,1.7748239349298849,9.60728889958036,-0.65,0.0,-0.4,-1.1,-1.1,-0.75,-0.65,-2.2,2.1275000000000004,8.1,3.2400000000000007,1.3900000000000001,0.6900000000000002,2.0875,2.7275,87.46,0
1.760681686165901,4.2895221179054435,1.7748239349298849,1.9493588689617927,1.51657508881031,1.3601470508735443,1.857417562100671,10.844353369380768,-0.6,-0.2,-0.25,-1.1,-1.1,-0.75,-0.55,-1.9,2.7399999999999998,18.36,3.0875,2.5900000000000007,1.09,1.2875,3.1475000000000004,113.98999999999997,0
2.539685019840059,4.753945729601885,2.6267851073127395,1.746424919657298,1.3228756555322954,1.0723805294763609,1.8841443681416772,7.533259586659682,-0.45,0.1,-0.3,-0.95,-0.85,-0.55,-0.25,0.25,6.2475000000000005,22.590000000000007,6.8100000000000005,2.1475000000000004,1.0275,0.8474999999999999,3.4875,56.6875,0
2.3664319132398464,4.018706259482023,2.7658633371878665,1.6583123951777,0.806225774829855,1.1832159566199232,1.9493588689617927,6.782329983125268,-0.6,0.05,-0.55,-1.05,-0.55,-0.6,-0.8,0.0,5.239999999999999,16.1475,7.347500000000001,1.6474999999999997,0.34750000000000003,1.04,3.1599999999999993,46.0,0
1.2649110640673518,4.994997497496871,2.5592967784139455,1.5652475842498528,1.0723805294763609,1.4832396974191326,1.746424919657298,9.805610638812864,-0.2,0.25,-1.05,-0.65,-0.45,-0.5,-0.95,-1.05,1.56,24.8875,5.447500000000002,2.027499999999999,0.9475000000000001,1.95,2.1475,95.0475,0
1.51657508881031,5.13322510708424,1.6733200530681511,1.161895003862225,1.5,1.284523257866513,1.61245154965971,9.02219485491197,-0.5,-0.25,-0.6,-0.15,-0.65,-0.15,-0.3,-0.7,2.05,26.2875,2.44,1.3275000000000001,1.8275,1.6275,2.5100000000000007,80.91,0
1.7175564037317668,3.4856850115866753,1.8973665961010275,1.0,1.5,1.2649110640673518,1.6583123951777,7.109852319141376,-0.85,-0.85,-0.7,-0.4,-0.75,-0.4,-0.65,-0.85,2.2274999999999996,11.427500000000002,3.11,0.8399999999999999,1.6875,1.4400000000000002,2.3275,49.8275,0
1.9621416870348585,3.0083217912982647,2.4596747752497685,1.2449899597988732,1.378404875209022,1.449137674618944,1.6278820596099706,7.280109889280518,-0.85,-1.05,-0.85,-0.65,-0.9,-0.7,-0.95,-2.2,3.1275,7.9475000000000025,5.3275,1.1274999999999997,1.0900000000000003,1.6099999999999999,1.7475,48.16000000000001,0
2.0248456731316584,3.7349698793966195,2.0615528128088303,1.5,1.7175564037317668,1.284523257866513,1.5,8.120960534321048,-1.0,-1.15,-0.45,-0.95,-1.15,-0.65,-0.65,-0.85,3.1,12.627500000000001,4.0475,1.3475,1.6275,1.2274999999999998,1.8275000000000001,65.22749999999999,0
1.8708286933869707,4.11703777004778,2.0,1.466287829861518,1.70293863659264,1.284523257866513,1.8708286933869707,7.915175298121956,-0.7,-1.25,-0.8,-0.95,-1.1,-0.75,-0.4,-1.85,3.0100000000000002,15.3875,3.3600000000000008,1.2475,1.6900000000000002,1.0875,3.34,59.227499999999985,0
1.378404875209022,3.872983346207417,2.2135943621178655,1.6583123951777,1.3038404810405297,1.2449899597988732,1.9364916731037085,5.504543577809154,-0.2,-0.9,-0.9,-0.75,-0.9,-0.55,-0.65,-2.0,1.8599999999999999,14.189999999999998,4.090000000000001,2.1875,0.89,1.2474999999999998,3.3275000000000006,26.3,0
1.4317821063276353,4.049691346263317,2.202271554554524,1.6733200530681511,1.449137674618944,1.466287829861518,1.466287829861518,5.709640969448079,-0.35,-1.4,-0.75,-0.4,-0.8,-0.55,-0.65,0.7,1.9274999999999998,14.440000000000001,4.2875,2.6399999999999997,1.4600000000000002,1.8474999999999997,1.7274999999999998,32.11,0
1.9364916731037085,4.455333881989093,2.479919353527449,1.3416407864998738,1.51657508881031,1.6431676725154984,1.9493588689617927,11.070230349906907,-0.85,-1.95,-0.75,-0.5,-0.8,-0.7,-0.6,-1.45,3.0275000000000003,16.0475,5.5875,1.55,1.6600000000000001,2.2100000000000004,3.44,120.44750000000002,0
1.91049731745428,3.7282703764614498,2.1908902300206643,1.746424919657298,1.378404875209022,1.5652475842498528,2.0615528128088303,12.326800071389167,-0.85,-2.6,-1.0,-1.05,-0.8,-1.15,-0.65,0.35,2.9275,7.139999999999999,3.8,1.9475000000000002,1.2600000000000002,1.1275000000000002,3.8274999999999997,151.8275,0
1.9493588689617927,3.9749213828703582,2.5099800796022267,1.5652475842498528,1.3601470508735443,1.5652475842498528,1.746424919657298,9.818350166906862,-0.9,-1.6,-1.4,-0.65,-0.85,-1.05,-0.75,1.8,2.9899999999999998,13.240000000000004,4.340000000000001,2.0275,1.1275,1.3475,2.4875,93.16,0
2.1330729007701543,4.449719092257398,2.479919353527449,1.3601470508735443,1.3416407864998738,1.2649110640673518,1.7888543819998317,10.315037566582102,-0.85,-1.9,-1.25,-0.35,-0.8,-0.6,-1.0,0.7,3.8275000000000006,16.190000000000005,4.5875,1.7275000000000003,1.1600000000000001,1.2399999999999998,2.2,105.91000000000001,0
1.8973665961010275,4.61519230368573,2.1330729007701543,1.396424004376894,1.2449899597988732,1.3228756555322954,1.70293863659264,10.273752965688828,-0.4,-2.3,-0.45,-0.55,-0.85,-0.45,-0.6,2.15,3.439999999999999,16.01,4.347500000000001,1.6475000000000002,0.8275000000000002,1.5474999999999999,2.5399999999999996,100.92750000000001,0
1.6583123951777,3.591656999213594,2.3874672772626644,1.224744871391589,1.224744871391589,1.3416407864998738,2.3769728648009427,11.23832727766904,-0.35,-0.9,-0.4,-0.6,-0.7,-0.4,-0.95,-1.1,2.6274999999999995,12.09,5.539999999999999,1.1400000000000001,1.0099999999999998,1.6399999999999995,4.7475000000000005,125.09000000000003,0
1.61245154965971,3.3541019662496847,2.6551836094703507,1.760681686165901,1.3038404810405297,1.224744871391589,2.5298221281347035,12.45391504708459,-0.6,-0.65,-0.55,-1.1,-0.5,-0.4,-0.7,-0.8,2.2400000000000007,10.8275,6.7475,1.89,1.45,1.3400000000000003,5.909999999999999,154.46,0
1.6431676725154984,4.39317652729776,3.1937438845342623,1.5329709716755893,1.2649110640673518,1.0488088481701516,2.179449471770337,9.856469956328178,-0.1,-0.5,-1.0,-0.95,-0.8,-0.3,-0.25,1.25,2.6900000000000004,19.05,9.2,1.4475000000000002,0.96,1.01,4.6875,95.5875,0
1.5652475842498528,4.283689998120779,3.138470965295043,1.284523257866513,1.5329709716755893,1.3601470508735443,1.9493588689617927,7.0710678118654755,-0.65,-1.15,-1.45,-0.35,-1.05,-0.75,-0.7,-0.6,2.0275,17.027500000000003,7.7475,1.5275,1.2474999999999998,1.2875,3.310000000000001,49.64,1
29.82700119019678,21.108055334397815,12.30447073221762,35.490139475634635,14.87783586413024,9.297849213662266,23.240051635054513,63.80634764660958,3.55,4.75,0.4,4.55,4.85,2.25,4.1,-6.15,877.0475,422.9875,151.24000000000007,1238.8475,197.82750000000001,81.3875,523.2899999999998,4033.4275000000002,1
30.55977748610091,24.569289774024806,9.846319109189992,37.70278504301771,15.491933384829668,9.874208829065749,23.8725784112232,72.26859622270243,-1.8,-1.95,1.15,-1.2,-3.6,1.0,-7.2,-0.65,930.6600000000001,599.8475000000001,95.62749999999998,1420.0600000000002,227.03999999999996,96.5,518.0600000000001,5222.327500000001,1
23.90397456491284,18.16314950662467,11.417092449481173,36.97566767483719,16.977926846349646,11.097296968181036,22.801315751508728,63.044428778441635,6.3,-6.9,-3.25,-5.9,-8.65,2.45,-3.2,6.7,531.7100000000002,282.29,119.7875,1332.3899999999999,213.4275,117.14750000000001,509.65999999999985,3929.71,1
33.40434103526067,14.373586887064759,10.158740079360236,39.092838218783754,18.893120441049433,10.5,21.555741694499865,57.3310561563277,3.55,-1.9,-3.6,6.65,-6.45,1.65,-1.05,-5.65,1103.2475,202.98999999999998,90.23999999999998,1484.0275,315.34749999999997,107.52749999999999,463.54749999999996,3254.9275000000007,1
38.58237939785466,13.553597308463905,9.463086177352503,34.2257213218363,17.638027100557476,10.012492197250394,16.713766780711044,64.09641175604139,-13.8,-4.0,-0.85,8.9,-4.8,-0.75,-2.15,-14.95,1298.16,167.7,88.82750000000001,1092.19,288.06,99.6875,274.72749999999996,3884.8475,1
36.45065157167976,16.261918705983007,9.954898291795853,27.259860601257667,12.198360545581526,12.718097341976904,19.480759738778158,64.09914195993578,-6.85,-5.15,0.0,-2.1,-3.8,-1.25,2.2,6.3,1281.7275,237.9275,99.1,738.6899999999998,134.35999999999996,160.1875,374.65999999999997,4069.0099999999998,1
31.085366332086227,15.399675321252719,8.366600265340756,40.20136813592294,17.193021840269964,12.674778104566565,22.675978479439426,48.16326400899341,-3.8,-3.25,0.4,3.15,1.3,3.15,-2.0,4.2,951.86,226.5875,69.84,1606.2274999999997,293.90999999999997,150.72750000000002,510.2,2302.06,1
25.33179819910146,10.423531071570709,7.416198487095663,36.436931813751826,18.05547008526779,10.198039027185569,25.703112651972717,43.45860098990762,-0.8,-0.05,1.0,-1.75,0.6,1.9,-0.45,-3.35,641.06,108.6475,54.0,1324.5875,325.64,100.39,660.4475,1877.4274999999998,1
26.034592372457073,12.097520407091695,6.549809157525126,32.36355975476122,10.445094542415593,8.654478609367523,22.772790781983662,40.96828041302198,2.4,0.55,0.3,-6.2,-2.9,1.4,6.7,1.2,672.04,146.04749999999999,42.809999999999995,1008.96,100.68999999999997,72.93999999999998,473.71000000000004,1676.9600000000003,1
24.5855648704682,12.25969004502153,5.709640969448079,37.28940868396816,13.516656391282572,8.114801291467339,18.06515983876146,33.47013594235912,0.95,2.1,1.9,-12.5,-0.6,-0.05,0.75,2.95,603.5475,145.89000000000001,28.99,1234.25,182.33999999999997,65.8475,325.7875,1111.5475000000001,1
24.99599967994879,12.678722333105966,6.98212002188447,33.834154341434335,17.940178371465542,10.363397126425292,27.67128475513922,38.54607632431607,-4.8,-3.25,-2.15,-10.35,-1.05,-3.9,-3.4,-2.0,601.76,150.1875,44.127500000000005,1037.6275,320.7475,92.18999999999998,754.14,1481.8,1
26.76378149664206,13.546217184144066,7.835815209663893,33.26559784522142,17.94993036198191,11.119802156513398,27.649593125396983,44.20350664822871,-9.1,-6.0,-3.5,-7.1,-0.3,-2.65,1.1,-6.05,633.49,147.5,49.15,1056.1900000000003,322.10999999999996,116.62750000000003,763.2899999999998,1917.3475000000003,1
25.023988491045948,14.637281168304447,7.6681158050723255,32.589875728514215,15.519342769589182,10.346496991735899,18.42145488282617,41.42704430682932,-1.1,1.05,-0.3,1.2,1.55,0.05,-2.55,-8.5,624.99,213.14749999999998,58.71,1060.6600000000003,238.4475,107.04750000000001,332.84749999999997,1643.95,1
25.97498796919837,15.740076238697194,9.049861877399014,27.43264478682287,14.076576288288285,8.645808232895291,23.688604855499616,44.30519156938609,-5.8,0.25,-0.4,10.55,1.05,-2.05,-7.75,-20.35,641.0600000000002,247.6875,81.74,641.2475000000001,197.04749999999999,70.54749999999999,501.0875,1548.8274999999999,1
30.886081007470015,25.417513647089873,9.60728889958036,27.94011453090341,15.26597523907333,6.996427659884722,32.24980620096809,54.53164219056675,-1.45,-0.75,0.8,3.05,-1.65,-0.65,-12.35,-17.5,951.8475000000001,645.4875,91.66000000000001,771.3475000000002,230.32750000000001,48.527499999999996,887.5274999999999,2667.45,1
26.184919323916198,25.367301787931645,8.792041856133306,28.45786358811919,15.786069808536892,5.089204259999788,29.990831932442287,49.04130911792629,4.45,1.2,1.6,-9.95,-4.1,-0.4,-2.15,-12.15,665.8475000000001,642.0600000000002,74.74000000000001,710.8475,232.39000000000001,25.740000000000002,894.8275000000001,2257.4275000000007,1
20.274368054269903,13.156747318391426,12.725957724273643,33.6986646619714,16.503030024816656,6.312685640834652,30.297689680898113,32.429924452579286,1.15,-0.4,0.95,-3.5,-1.95,0.75,4.85,-10.8,409.72749999999996,172.94000000000003,161.04749999999996,1123.35,268.54749999999996,39.2875,894.4274999999998,935.0600000000001,1
20.27806696901852,18.91163662933486,12.814054783713077,38.87286971655167,14.615060725156088,9.444575162494075,34.85756732762629,47.92650623611114,1.9,-0.65,1.9,4.2,-2.9,-0.6,-4.45,5.55,407.59000000000003,357.2275,160.59000000000003,1493.4599999999998,205.19,88.83999999999999,1195.2474999999997,2266.1475,1
20.271901736147004,17.039659621013563,8.034301463101817,33.19337283253993,13.836545811726277,10.516653460107925,32.516149833582695,56.574729340934546,-0.05,0.25,-0.45,-2.9,-7.15,-2.4,-4.0,1.7,410.94749999999993,290.2875,64.3475,1093.3899999999999,140.32750000000001,104.84,1041.3,3197.81,1
22.179945897138705,13.793114224133722,12.20245876862528,29.801006694405476,12.757350822173073,8.590692637965812,21.964744478368054,43.718417171713796,6.35,4.55,-2.5,-4.5,-5.65,-0.2,4.35,-7.1,451.62750000000005,169.54749999999999,142.65,867.85,130.82750000000001,73.76000000000002,463.52750000000015,1860.89,1
18.218122845123204,17.608236708995026,14.214429288578561,31.462676300658213,13.784048752090222,8.19756061276768,24.92388412747901,48.96376211036076,9.9,7.05,-4.75,-0.9,-0.7,1.6,6.2,14.35,233.89000000000001,260.3475,179.4875,989.0899999999999,189.51,64.64000000000001,582.76,2191.5274999999997,1
17.579817974029197,16.731706428215862,12.749509794497984,30.70749094276509,15.792403236999744,9.313968005098578,30.32160945596391,58.41789109510887,-3.55,-2.95,-1.95,2.55,4.2,0.65,7.1,-0.75,296.44750000000005,271.24750000000006,158.74749999999997,936.4474999999999,231.75999999999993,86.32750000000001,868.99,3412.0875,1
18.776314867406757,13.45548215412588,10.726136303441235,32.92947008380183,12.161414391426682,9.85393322486001,27.512724328935512,46.57037685052592,-2.45,-2.75,-2.35,-0.65,3.8,0.7,3.45,0.6,346.54749999999996,173.4875,109.52749999999999,1083.9275,133.46000000000004,96.61,745.0475,2168.44,1
21.634463247328323,11.631852818876277,8.476437931112336,31.565012276252958,12.625371281669304,11.76010204037363,36.39093293665333,46.03259714593562,2.25,0.9,-0.45,1.45,2.6,-3.7,-0.7,9.0,462.9875,134.48999999999995,71.64750000000001,994.2474999999998,152.64,124.61000000000001,1323.8100000000002,2038.0,1
22.54550953072474,12.144957801491119,6.511528238439882,28.610312825972386,16.44840417791343,11.625403218813531,33.473123547108656,44.68388971430308,0.5,0.3,0.7,0.25,3.55,-1.45,-0.65,7.25,508.05,147.40999999999997,41.91000000000001,818.4875,257.9475,133.0475,1120.0275000000001,1944.0875,1
22.74203157151973,17.264124652005965,5.172040216394301,33.95364487061735,15.05323885414697,9.016651263079881,23.13222859994255,32.605214306917226,-5.0,-0.25,-0.05,-4.35,0.8,0.1,-2.4,7.8,492.2,297.9875,26.747500000000002,1133.9275000000002,225.95999999999998,81.28999999999999,529.34,1002.26,1
20.58761763779384,18.6560981987124,7.816648898345122,30.873937228672343,22.296860765587606,8.677557259966655,22.007953107910787,27.09058877174876,0.25,0.95,-0.7,-1.7,-4.25,-2.4,-3.65,13.7,423.7875,347.1475,60.61,950.3100000000001,479.0875,69.53999999999999,471.02749999999986,546.2099999999999,1
16.587646005386055,13.070960178961606,9.375499986667378,27.501818121716973,24.059301735503464,8.136338242723197,15.355780670483673,40.708721424284505,3.15,0.35,-0.4,-1.55,-5.15,-0.7,-5.5,10.7,265.22749999999996,170.72750000000002,87.73999999999998,753.9475000000001,552.3275000000001,65.71000000000001,205.55,1542.7100000000003,1
23.231444208227778,16.07171428317465,11.560709320798617,34.12696880767467,16.75708805252273,7.996874389409903,14.736010314871526,44.53088815642464,4.2,3.6,2.25,5.95,0.9,0.95,-0.45,8.9,522.0600000000001,245.34000000000006,128.5875,1129.2475,279.99000000000007,63.0475,216.9474999999999,1903.7900000000002,1
25.828279075463005,19.761072845369505,11.229425630903835,33.8178946713127,14.996666296213968,7.5960516059331775,24.860611416455548,33.68827689271151,0.3,4.4,-0.3,-1.05,0.4,-1.1,-2.45,7.8,667.01,371.14000000000004,126.01000000000002,1142.5475000000001,224.74,56.489999999999995,612.0475,1074.06,1
20.935615586841482,19.030239094661948,8.384509526501834,32.0928340911176,12.936382802004585,9.932270636667127,27.348674556548442,40.031862309915084,-2.4,0.15,-3.3,-10.65,-2.35,-3.05,-5.75,-5.85,432.53999999999996,362.12749999999994,59.410000000000004,916.5274999999999,161.82750000000001,89.34750000000001,714.8875,1568.3275,1
25.52743622066266,14.142135623730951,8.06225774829855,27.07120241141867,12.06855418018248,10.198039027185569,24.307406278745578,40.88459367536872,8.75,1.6,0.7,-4.75,-2.55,-2.6,-1.25,-1.65,575.0875,197.44,64.51000000000002,710.2875,139.1475,97.24000000000002,589.2875,1668.8274999999999,1
30.714817271147812,15.0449327017438,6.866585760041158,26.14287665885298,16.051479682571323,7.755643106796495,31.57689028387691,46.80544840080052,7.3,6.95,3.35,0.05,0.15,-0.65,1.5,-5.85,890.1099999999999,178.0475,35.927499999999995,683.4475,257.6275,59.727500000000006,994.85,2156.5275,1
25.122698899600735,17.404022523543226,9.41541289588513,37.92360742334516,15.254507530562892,8.774964387392123,32.96209944769902,45.555460704508306,5.35,5.8,1.15,-8.3,-0.5,-2.4,-4.2,-11.2,602.5274999999999,269.26,87.32749999999999,1369.31,232.45,71.23999999999998,1068.86,1949.8600000000001,1
17.7426040929735,17.226433176952217,10.88577052853862,40.667554635114215,12.786711852544421,8.381527307120106,28.212585843910162,26.303041649208556,2.7,-0.25,-1.6,-14.65,-2.5,-3.15,-8.95,4.25,307.51,296.6875,115.94000000000001,1439.2275,157.25,60.3275,715.8475000000001,673.7875,1
13.946325680981353,16.028100324118263,10.029955134495866,34.13063140347685,13.156747318391426,7.358668357794092,26.187783411354232,18.930134706335295,-3.4,-0.7,-0.7,3.2,-0.9,-1.65,-2.6,0.25,182.94000000000003,256.40999999999997,100.10999999999999,1154.6600000000003,172.29000000000002,51.427499999999995,679.0399999999998,358.2875,1
26.48112535373072,11.095043938624128,7.971825386948713,32.23042041301974,13.894243412291294,6.465291950097845,25.381095327034252,24.72650399874596,-2.25,-0.2,-1.15,7.3,-0.65,1.0,0.5,-7.2,696.1875,123.06000000000002,62.227500000000006,985.51,192.6275,40.8,643.95,559.5600000000001,1
30.092357833842133,13.734991809244008,8.508818954473059,36.93440130826544,16.3783393541592,6.058052492344384,21.980673329086166,29.545727271468543,-2.15,-1.65,-1.5,-1.15,-0.65,0.1,-0.05,-6.75,900.9275,185.92749999999998,70.15,1362.8274999999999,267.8275000000001,36.690000000000005,483.14750000000004,827.3875,1
28.78541297254566,14.796959147068021,12.235195135346228,38.99743581314033,17.585505395068974,7.067531393633848,17.59545395833822,34.53404117678671,-6.7,-6.35,-0.6,-2.1,1.35,-0.45,0.0,2.8,783.71,178.6275,149.34,1516.3899999999999,307.42749999999995,49.7475,309.6,1184.7600000000002,1
29.878922336657325,17.369513522260778,11.126544836560898,29.664793948382652,17.91507744889762,8.393449827097319,17.97498261473429,44.177482952291435,-1.15,-1.1,0.8,2.2,0.35,-0.15,-4.7,-3.95,891.4275,300.49000000000007,123.16000000000001,875.1599999999999,320.8275,70.4275,301.01,1936.0475,1
22.725536297302206,18.76832437912346,8.099382692526634,33.98676212880538,18.390214789392754,8.668909966079934,25.995191863111916,39.53163290328392,8.55,4.15,-1.5,-3.9,-4.4,-2.65,0.25,-8.25,443.34750000000014,335.0275000000001,63.35,1139.89,318.84000000000003,68.12749999999997,675.6875,1494.6875,1
24.0249869927124,15.792403236999744,10.04987562112089,32.088938904239264,15.323185047502363,9.348796714016196,26.56219117467533,27.377910804150122,7.6,-1.8,-1.8,-4.4,-4.3,-1.2,1.15,1.55,519.44,246.15999999999994,97.75999999999999,1010.3399999999998,216.31,85.96000000000001,704.2275,747.1475000000002,1
27.28094573140748,17.411203289836116,10.693455942771728,28.63214976211182,14.026760139105537,9.967447015158896,25.39783455336301,34.11524585870663,6.55,-2.55,0.85,4.7,-4.75,-0.65,-9.45,2.15,701.3475,296.6475,113.62749999999998,797.71,174.1875,98.92750000000001,555.7475000000001,1159.2275,1
16.077935190813527,16.428633540255255,9.544631999192006,30.5761344842673,18.57686733547936,8.294576541331088,24.72245942457991,33.03634362334912,-6.7,-3.2,0.8,1.1,-2.2,-3.6,-8.3,-2.5,213.60999999999996,259.65999999999997,90.46000000000001,933.6899999999999,340.26000000000005,55.84000000000001,542.31,1085.15,1
15.329709716755891,12.984606270503546,6.438167441127949,22.35732542143626,16.70478973228936,7.046275611981127,23.741314201197877,36.33318042781281,-1.6,0.3,-0.75,-1.15,-1.05,-3.75,0.45,4.2,232.44000000000005,168.51000000000005,40.8875,498.5275,277.9474999999999,35.5875,563.4475,1302.4600000000003,1
16.610237806846715,17.608236708995026,9.09945053286186,25.24678197315452,12.607537428062626,6.00416522091123,19.54098257509074,39.06276999906689,3.4,4.55,-0.6,-1.0,0.55,-1.35,-1.05,0.2,264.34000000000003,289.34749999999997,82.43999999999998,636.4,158.64749999999998,34.2275,380.74750000000006,1525.8599999999997,1
18.99210362229524,16.545392107774298,11.242775458044157,32.180739581308565,9.423375191511797,6.774953874381729,21.54646142641524,44.60549293528769,1.9,3.25,-0.5,-2.5,-2.1,-1.8,0.15,-2.75,357.0900000000001,263.1875,126.15,1029.35,84.39,42.66,464.22749999999996,1982.0875,1
20.96544776531138,14.076576288288285,8.783507272155013,28.820131852578328,8.136338242723197,6.689544080129826,20.768967234795284,33.968367638142404,3.05,0.45,2.95,5.5,-3.0,-1.35,-2.05,-2.05,430.24750000000006,197.94749999999996,68.4475,800.35,57.2,42.927499999999995,427.1474999999999,1149.6475000000003,1
23.195904810979027,14.815532390029054,8.366600265340756,27.801079115746568,13.10152662860325,7.395944834840239,20.436486977951958,29.029295547773806,0.65,-2.5,-0.6,0.8,-5.05,-1.7,-5.05,-2.7,537.6274999999998,213.25,69.63999999999999,772.26,146.14749999999998,51.81,392.14750000000004,835.4100000000001,1
21.23205124334434,13.433167906342867,9.484197383015603,37.16517186829626,14.117365193264641,7.310950690573696,23.616731357239086,29.595607782236875,-5.3,-4.55,-0.95,-3.45,-5.7,-1.45,0.05,-8.8,422.70999999999987,159.7475,89.0475,1369.3475,166.80999999999997,51.347500000000004,557.7475,798.4600000000002,2
37.380476187443094,19.276929216034386,14.159802258506296,36.11924694674572,23.428614982537912,60.16726684834537,50.34779041824974,44.63014676202622,-5.8,-2.8,-1.7,-14.2,-6.3,-7.7,4.9,7.55,1363.6600000000003,363.76000000000005,197.60999999999999,1102.9599999999998,509.21000000000015,3560.81,2510.8900000000003,1934.8474999999999,2
47.587288218598886,23.6928259184083,14.515508947329405,39.70642265427597,18.86001060445089,60.76717864110527,53.66796064692602,40.317490001238916,3.45,4.05,0.5,-5.9,-2.3,9.85,10.95,10.4,2252.6475,544.9475,210.45,1541.79,350.40999999999997,3595.6275,2760.3475000000003,1517.3400000000001,2
39.88984833262719,21.03924903602788,12.060265337047937,45.79683395170456,21.968158775828257,58.06677190958698,52.25992728659312,40.93775763277711,4.4,3.95,0.35,5.95,-3.0,1.45,4.8,12.1,1571.8399999999997,427.0475,145.32750000000001,2061.9474999999993,473.6,3369.6475,2708.0600000000004,1529.4900000000002,2
30.731905245200792,13.158647346897022,15.504837954651444,43.2400277520725,25.09482018265921,60.77211531615466,53.69543742255947,39.49050518795626,-10.55,-1.25,-5.1,1.9,-6.45,-28.35,-7.6,11.1,833.1475,171.5875,214.38999999999996,1866.0900000000001,588.1474999999999,2889.5275,2825.440000000001,1436.2900000000002,2
34.77858536513525,13.535139452550904,14.99333185119305,42.899300693601056,18.75366630821824,60.28391161827507,37.299463803116524,30.534406822468323,-6.25,0.0,-4.5,-7.65,-3.5,-22.15,-15.25,0.95,1170.4875,183.2,204.55,1781.8275,339.45,3143.5274999999997,1158.6875,931.4475,2
27.81726082848561,16.00312469488381,9.957409301620578,41.956525118269745,19.75854245636555,46.37941353661127,28.63826112039626,37.772344380512045,4.2,2.4,0.95,-5.65,-4.3,-6.95,-5.95,-7.05,756.1599999999999,250.34,98.2475,1728.4274999999998,371.90999999999997,2102.7475,784.7475000000001,1377.0475000000001,2
20.942779185198894,14.654350889752845,12.022894826122368,33.37663853655727,17.774982419119294,35.86572179672395,31.53807223024261,41.607090741843514,6.5,-0.25,-0.65,-9.2,-6.05,-10.85,-7.05,-2.45,396.35,214.6875,144.1275,1029.3600000000001,279.3475,1168.6274999999996,944.9474999999999,1725.1475000000003,2
22.565460332109335,12.862736878285274,10.21518477561713,27.887273082895717,13.509256086106296,28.205495918348962,26.477348809878983,30.039973368829738,-2.1,-1.15,-2.45,-5.2,-3.2,0.35,0.95,5.3,504.78999999999996,164.1275,98.34750000000001,750.66,172.26000000000002,795.4274999999999,700.1475,874.3099999999997,2
23.97602969634464,11.013627921806693,6.663332499583072,36.83680224992392,15.367172804390533,24.056184236075346,25.10179276466125,34.58178711402868,0.55,-3.3,-2.2,4.75,-2.25,2.5,-2.0,-3.8,574.5475000000001,110.41000000000001,39.56,1334.3875,231.0875,572.45,626.1,1181.46,2
24.00937316966022,11.65975986030587,7.784600182411426,39.54680770934615,14.565369888883701,30.82044775794148,21.174276847155845,39.54111783953509,1.65,-1.05,-0.7,8.15,-0.55,7.6,0.65,-10.1,573.7275,134.8475,60.11,1497.5274999999997,211.84750000000003,892.14,447.92750000000007,1461.4900000000002,2
19.701522783785013,11.89327541092024,9.17605579756357,28.365471968574752,10.21273714534943,32.20947065693567,20.212619820300386,32.32877974808205,0.75,0.75,-0.8,-7.8,-1.0,4.75,5.35,-8.55,387.5875,140.8875,83.56000000000002,743.7600000000001,103.3,1014.8875,379.92750000000007,972.0475000000002,2
14.284607099952032,11.823705003085962,10.461835403025608,27.35415873317986,15.962455951387932,27.874719729532707,25.844728669498544,28.214358046923554,0.25,1.6,3.75,0.75,2.6,1.9,2.35,3.05,203.9875,137.24000000000004,95.3875,747.6875,248.04000000000002,773.3900000000001,662.4275,786.7475000000002,2
18.20988742414406,13.512956745287095,11.052149112276762,30.72132809629167,17.073371078963874,35.532379599458295,31.522214389220817,29.247222090311414,1.9,4.5,3.35,9.7,1.8,2.65,-8.25,5.6,327.98999999999995,162.35,110.92750000000001,849.71,288.26,1255.5274999999997,925.5875,824.04,2
33.70682423486378,17.867568385205637,11.097296968181036,27.112727638509558,15.682793118574255,41.2146818500398,30.777426793024787,29.03015673398957,3.95,5.55,1.95,3.9,-0.65,-2.85,-4.25,3.25,1120.5475000000001,288.44750000000005,119.3475,719.8899999999999,245.5275,1690.5275000000001,929.1875,832.1875,2
37.33831811959398,19.030239094661948,11.244998888394788,28.860873167664213,16.86268068843148,43.191434335988426,38.564232132897445,25.816661286851172,2.35,0.45,1.75,-3.25,0.35,-3.1,11.9,3.1,1388.6274999999998,361.94749999999993,123.3875,822.3875,284.2275,1855.8899999999999,1345.59,656.8899999999999,2
26.450897905364194,15.06154042586614,9.426027795418387,25.310077044529123,15.995311813153252,43.98749822392722,35.00785626113087,23.02715787933891,7.15,2.65,0.25,0.4,1.75,16.5,5.65,-5.65,648.5274999999999,219.82750000000001,88.7875,640.4399999999999,252.7875,1662.65,1193.6275,498.32750000000004,2
32.835194532696164,13.825700705570044,8.608135686662937,23.61143790623519,15.94678651014053,55.11306560154316,26.712356691239354,21.473239159474755,2.05,-0.35,-2.6,-2.5,3.3,9.95,3.05,-4.5,1073.9474999999998,191.0275,67.34,551.25,243.41000000000003,2938.4474999999993,704.2475,440.85,2
46.36917079267215,19.574217736604442,11.313708498984761,31.63463292026636,20.491461636496307,51.94516339371742,44.30067719572693,33.31966386385073,3.4,4.05,-1.6,-5.15,-3.4,-6.8,-3.95,-2.8,2138.54,366.7475,125.43999999999998,974.2275,408.34000000000003,2652.059999999999,1946.9475000000002,1102.3600000000001,2
52.45807850083722,24.59369837986959,11.067971810589327,33.03861377237247,23.355941428253324,47.05422403993078,44.40664364709407,35.97916063501204,-8.45,1.45,0.4,-2.95,-3.9,-9.2,-5.55,2.0,2680.4474999999993,602.7475000000001,122.34000000000003,1082.8475,530.2900000000001,2129.46,1941.1474999999996,1290.5,2
41.925529215503055,23.310941636922347,9.313968005098578,26.572542219366216,17.96524422322168,42.54350714268865,37.05401462729781,27.607064313323864,-13.55,-2.5,0.15,-0.5,-1.45,-2.75,0.0,1.35,1574.1475000000003,537.15,86.72749999999999,705.85,320.6475,1802.3875,1373.0,760.3275000000002,2
40.2106950947133,23.766573164846463,9.322016949137135,24.620113728413198,15.114562514343575,46.55588040194278,37.82723886302039,23.31201407000262,4.9,7.15,0.2,-2.25,-4.45,1.25,0.8,0.85,1592.8899999999999,513.7275000000001,86.85999999999999,601.0875,208.64749999999998,2165.8875,1430.2599999999998,542.7275000000001,2
41.14911906711977,24.201239637671456,8.935882720806042,27.98481731224987,18.073461206974162,52.9216401862225,42.69718960306404,26.374229846575616,8.35,1.2,-0.45,2.95,-1.75,1.5,-3.65,-1.8,1623.5274999999995,584.2599999999999,79.64750000000001,774.4475,323.5875,2798.45,1809.7274999999995,692.36,2
31.60142401854701,17.253985046939157,7.162401831787993,32.7566787083184,16.60421633200435,36.05828614895611,44.25946226514733,23.620965263934497,-7.65,-8.5,-1.5,3.9,1.2,8.8,3.0,1.75,940.1275000000002,225.45,49.05,1057.7899999999997,274.26000000000005,1222.76,1949.9,554.8875,2
38.459069151501836,19.973732750790475,5.843800133474792,24.51938009004306,17.168284713389397,36.42389325703665,29.261749776799064,13.535139452550904,-1.8,-6.95,-3.65,-10.3,-7.15,-7.8,6.85,2.5,1475.8600000000001,350.64750000000004,20.8275,495.11,243.6275,1265.8600000000001,809.3274999999999,176.95,2
38.34970664816095,21.5626992744415,5.454356057317857,26.211638636300478,15.347638254793472,41.56681368592017,18.95521036549054,11.37321414552632,4.0,0.05,-1.65,-4.25,-2.25,-10.0,3.4,-0.45,1454.7,464.94749999999993,27.027500000000003,668.9875,230.4875,1627.8,347.74,129.14750000000004,2
39.21606813539573,17.389652095427326,6.395310782127793,29.196746394076175,16.323296235748465,50.855186559484764,19.41906279921871,10.057335631269348,-6.3,0.7,-0.7,-2.65,-1.45,-9.25,-1.4,-0.55,1498.2099999999998,301.90999999999997,40.41,845.4275,264.34749999999997,2500.6875,375.14,100.8475,2
47.88788990966297,15.890248582070704,5.958187643906492,26.309694030908076,15.574016822900893,48.3611414257356,24.38647165950827,12.010412149464313,-2.95,1.9,-1.6,-1.1,-0.35,-4.8,-8.0,-3.55,2284.5474999999997,248.89000000000001,32.94,690.9899999999997,242.4275,2315.76,530.7,131.64749999999998,2
38.135285497816845,17.242389625571047,4.806245936279167,24.066574330386118,13.892443989449804,37.53065413765126,35.344730866141845,11.821590417536889,11.0,4.0,-0.5,-2.6,3.7,10.95,-2.15,-0.85,1333.3,281.3,22.85,572.4399999999999,179.31,1288.6475000000005,1244.6275,139.02750000000003,2
28.271894170713075,16.874537030686206,5.277309920783504,18.05408541023333,8.700574693662482,33.088517645854125,50.60335957226555,8.963816151617568,4.5,0.35,0.75,-4.75,0.6,6.05,-3.0,-0.55,779.05,284.62750000000005,27.2875,303.3875,75.34,1058.2475000000002,2551.7,80.0475,2
43.72585047772084,17.623847480048163,7.042726744663604,24.0904545411663,12.294307625889308,37.82657795783277,47.8194521089483,9.846319109189992,-18.55,-3.1,-0.9,4.15,-0.05,4.85,-0.6,-0.55,1567.8475000000003,300.99,48.79,563.1274999999999,151.1475,1407.3275,2286.340000000001,96.64750000000001,2
54.45181356024793,22.09298531208492,7.341661937191061,30.760364107077798,15.522564221158822,49.21585110510637,36.55338561610949,9.348796714016196,-23.3,-5.5,-2.8,3.8,-0.15,1.0,-1.65,-0.3,2422.1099999999997,457.85,46.05999999999999,931.7600000000002,240.92750000000007,2421.2,1333.4275,87.31000000000002,2
52.018746620809694,23.53932879246985,6.395310782127793,32.86639621254512,16.425589791541732,47.22234640506547,45.56369168537598,9.330058949438637,0.05,-0.4,-0.7,3.9,-2.5,-3.85,-11.15,-0.05,2705.9474999999998,553.94,40.410000000000004,1064.9900000000002,263.55,2215.1275000000005,1951.7275000000002,87.04750000000001,2
54.30469592954186,20.759335249472706,6.98212002188447,32.55226566615602,19.14810695604137,33.53952891738344,44.83190827970632,10.457055034760025,-4.4,-6.15,-1.95,6.95,-6.55,0.1,-11.3,-3.05,2929.6400000000003,393.12750000000005,44.947500000000005,1011.3475000000001,323.7475,1124.8899999999999,1882.2099999999998,100.04750000000001,2
49.861307644304716,18.15488914865635,5.792236183029832,25.825375118282405,17.484278652549552,43.37107330929222,35.91865810411074,9.40744386111339,-9.95,-7.1,-1.65,-0.15,-1.4,13.55,-0.45,-1.0,2387.1474999999996,279.19,30.827500000000004,666.9274999999999,303.74,1697.4474999999995,1289.9475000000002,87.5,2
33.713498780162226,19.20286436967152,4.171330722922842,16.969089545405787,12.047821379818012,47.54103490669929,29.826163011691598,7.0178344238090995,-10.6,-2.75,0.6,-1.85,4.35,13.85,9.6,1.35,1024.2399999999998,361.1875,17.04,284.52750000000003,126.22750000000003,2068.3275,797.4399999999999,47.427499999999995,2
30.67327827278982,18.487833837418595,4.944694126030447,29.075763102625526,13.64551208273255,41.718700842667666,33.958062371107104,5.366563145999495,-9.45,-2.8,-0.75,-8.2,0.9,-8.75,-3.15,0.7,851.5475000000002,333.9599999999999,23.8875,778.1600000000001,185.39,1663.8875,1143.2275,28.309999999999995,2
44.18597062416984,17.334935823359714,6.160357132504576,31.41973901864877,17.131841699011815,36.24706884701161,41.0316950661315,8.663140308225419,-8.2,-4.2,-1.75,-3.5,-3.6,-14.55,-3.0,-1.85,1885.1599999999999,282.86,34.8875,974.95,280.54,1102.1475,1674.6,71.6275,2
46.70920680122924,18.65475810617763,6.6783231428256,22.41093483101497,15.90911688309568,39.82524325098341,49.28488612140643,10.981803130633876,-14.45,-4.7,-1.2,4.15,-1.1,-13.65,-4.3,-3.3,1972.9474999999998,325.91,43.160000000000004,485.02750000000003,251.89000000000004,1399.7275,2410.51,109.71000000000001,2
43.30877509235282,17.204650534085253,5.9497899122574065,22.60752087248843,10.809717850156867,42.79193849313209,50.62212954825192,10.80277742064512,-3.15,-0.1,-0.9,1.0,2.75,-11.35,-7.4,-0.2,1865.7274999999997,295.99,34.589999999999996,510.1,109.2875,1702.3274999999994,2507.84,116.65999999999997,2
41.7025179095939,14.620191517213446,5.191338940966964,21.1163443805977,12.651086909827155,35.29235044595358,42.18293493819509,9.5420123663722,1.4,1.85,-1.65,2.6,1.85,-15.15,-13.4,-1.45,1737.14,210.32749999999996,24.227500000000006,439.14000000000016,156.6275,1016.0274999999999,1599.8399999999997,88.9475,2
34.73974668877135,13.375350462698165,6.430396566309111,19.01709757034443,15.876082640248507,36.83883820100737,43.159587579123134,8.438009243891594,-8.55,0.0,-2.05,6.65,-1.05,-11.6,-3.05,-2.8,1133.7475000000002,178.9,37.1475,317.4275,250.9475,1222.5399999999997,1853.4474999999995,63.36,2
46.2190436941311,19.822966478304906,8.052949770115296,27.033312782565144,16.90562036720333,45.340930735925575,37.231706917626006,8.712060605849802,6.5,4.35,-0.65,8.5,0.0,-4.1,2.0,0.7,2093.95,374.02750000000003,64.4275,658.55,285.8,2038.9900000000005,1382.2,75.41,2
43.974424385090025,18.730990363565937,6.565059024867941,31.704889212864316,16.73618833546038,52.80766989746849,35.57808314116993,8.689073598491383,12.05,1.55,-0.2,3.5,-1.7,-14.15,-14.9,0.2,1788.5475000000001,348.4475,43.06000000000002,992.95,277.21,2588.4275000000007,1043.7900000000002,75.46,2
39.790074139161895,15.773395322504284,5.722761571129799,32.3403772396056,17.487138130637614,48.21047603996459,32.88008515804057,9.418067742376884,9.25,3.3,0.35,0.5,1.4,1.25,-6.8,2.5,1497.6875,237.91,32.627500000000005,1045.65,303.84,2322.6875,1034.8600000000001,82.45,2
25.738104048278306,14.432601983010548,8.910667763978186,23.246505113672463,15.84929020492716,40.75720795147774,22.425431991379785,9.648834126463155,1.35,2.4,1.1,-0.2,4.8,9.85,-1.4,0.0,660.6274999999999,202.54000000000008,78.19,540.3600000000001,228.15999999999994,1564.1275000000003,500.93999999999994,93.1,2
19.693907687404245,11.853269591129697,9.420721840708387,21.506975612577424,12.722028140198402,29.333428030150177,29.845435161846776,9.6591925128346,-6.35,-3.9,-0.25,2.25,4.85,7.95,6.85,-4.1,347.52750000000003,125.29,88.6875,457.4875,138.3275,797.2475000000002,843.8275,76.48999999999998,2
22.14610575247937,13.423859355639868,5.848076606885378,25.86986664055306,17.029386365926403,33.53878351997878,34.36058788786944,8.276472678623424,4.75,-1.1,0.4,-0.75,-2.8,-5.25,-1.05,-1.4,467.8875,178.99,34.040000000000006,668.6875,282.15999999999997,1097.2875,1179.5475000000001,66.53999999999999,2
27.7758888246623,14.310835055998654,4.706378650300037,26.18587405453559,18.364367672206956,43.142206712220926,28.925767059837842,5.903388857258177,-2.0,-3.8,-1.25,-7.6,-5.35,-15.95,-8.4,-0.45,767.5,190.35999999999999,20.5875,627.9399999999999,308.62749999999994,1606.8475,766.1399999999998,34.64750000000001,2
32.685623751123366,17.832554500127006,4.522167621838006,25.578311124857326,14.31258187749506,42.34855369431169,29.7691115084075,6.511528238439882,-3.25,1.5,-0.75,-5.35,-2.05,1.0,6.0,-1.0,1057.7875,315.75,19.8875,625.6275,200.64749999999998,1792.4,850.2,41.4,2
37.64306044943742,18.432308591166763,4.658325879540846,28.229417280560362,11.360017605620161,39.44236301237541,36.09016486523718,7.58946638440411,5.7,4.75,0.8,-1.7,-0.65,10.9,6.1,-0.3,1384.5099999999998,317.1875,21.060000000000006,794.01,128.6275,1436.8899999999999,1265.2899999999997,57.51000000000001,3
55.161127617190715,14.620191517213446,6.248999919987197,25.200198411917313,36.90596157804319,28.1336097932704,43.23251091481965,51.22157748449378,-2.35,-0.25,-2.85,-5.15,-0.05,3.3,2.25,1.65,3037.2275,213.6875,30.927500000000002,608.5275000000001,1362.0475000000001,780.61,1863.9875,2620.9275000000002,3
58.99915253628649,14.83408237809134,6.6558245169174945,29.66226559115133,36.254654873546926,17.759504497592268,55.664171600770274,53.67587912647542,-14.2,-3.25,-3.7,2.05,-0.3,2.6,0.7,-4.6,3279.2599999999998,209.4875,30.610000000000003,875.6475,1314.31,308.64,3098.0099999999998,2859.9400000000005,3
47.6072473474365,12.26580612923586,8.018728078691781,34.03601034198926,33.60208326874987,16.64331697709324,56.961390432467496,62.87765898950119,-11.55,-3.75,-2.5,-3.25,-2.0,2.6,10.4,-3.5,2133.0475,136.3875,58.05,1147.8875,1125.1,270.24000000000007,3136.4400000000005,3941.35,3
46.32278057284558,11.360017605620161,7.399324293474371,27.165235136107327,34.2133015068701,17.912286286233815,53.785685828108576,64.97961218720839,3.8,-0.55,-2.05,-0.95,3.65,5.35,14.5,9.95,2131.3599999999997,128.7475,50.54750000000002,737.0475,1157.2275,292.2275000000001,2682.65,4123.347499999998,3
42.181749608094734,12.320714265009151,9.113177272499422,44.48482887457251,34.373681792906616,21.130546609115438,47.56574397610112,58.13002666436684,3.6,-2.1,-0.05,-9.5,4.35,-4.1,0.8,8.6,1766.3399999999995,147.38999999999996,83.0475,1888.65,1162.6275,429.68999999999994,2261.86,3305.1400000000003,3
44.83692674570816,11.329165900453573,13.10915710486376,49.00714233660232,30.882843133364517,18.23595349851496,42.58520869973517,46.602038582019134,-11.75,-2.65,0.75,5.2,-1.35,-5.35,-2.2,3.85,1872.2875,121.32749999999999,171.2875,2374.66,951.9274999999996,303.9275000000001,1808.6600000000003,2156.9275000000007,3
44.874825904954776,8.80056816347672,13.709485767161363,35.63635783858951,31.29376934790694,15.404544783926593,41.378134322368865,37.672934581739185,-4.65,0.15,0.35,9.55,3.0,2.2,10.55,6.35,1992.1274999999998,77.4275,187.82750000000004,1178.7475,970.3,232.45999999999998,1600.8475,1378.9275,3
49.56157786027398,9.583840566286565,11.623252556836231,31.22178726466504,31.91473014142529,17.277152543170995,35.16461289421512,39.72782400283207,-7.25,-3.75,1.2,2.4,5.85,-0.2,-0.25,1.0,2403.7875,77.7875,133.66,969.04,984.3275,298.46,1236.4875,1577.3,3
38.977557645393844,9.233092656309694,9.785192895390463,37.87017295973178,26.870057685088806,19.79520143873257,38.698837191833036,39.85849972088764,2.85,-2.55,-3.05,-4.15,10.8,-4.25,2.5,-0.8,1511.1274999999996,78.74750000000002,86.44749999999999,1416.9275000000002,605.36,373.7875,1491.35,1588.0600000000002,3
35.96456589478038,8.470537173048708,7.794228634059948,36.98986347636336,25.50098037331114,20.08233054204616,48.9280083387828,45.033876137858705,0.95,0.05,-1.95,-1.15,1.8,-2.8,16.65,1.15,1292.5475,71.74750000000002,56.947500000000005,1366.9274999999998,647.0599999999998,395.4599999999999,2116.7275,2026.7274999999997,3
45.094899933362754,12.027052839328512,7.864477096412704,30.744105126023754,28.496491012052694,23.862103846894975,54.17240995193033,51.57518783291051,-4.55,-3.45,-0.85,1.0,-13.05,-9.2,-6.65,1.0,2012.8474999999994,132.7475,61.1275,944.2,641.7475000000001,484.76000000000005,2890.4275000000007,2659.0,3
55.597212160323295,13.038404810405298,5.882176467941097,26.69737814842499,36.69673009956065,28.99568933479596,48.06193920349032,45.953237100339294,-8.65,-3.4,-0.4,-3.05,-8.65,-6.05,-11.95,-1.4,3016.2275,158.44,34.44,703.4475000000001,1271.8275,804.1475000000003,2167.1475,2109.7400000000007,3
54.44951790420187,11.497825881443848,6.383572667401852,20.630075133164205,36.124783736376884,24.441767530193065,50.19511928464759,36.65651374585423,3.65,1.5,0.95,-2.3,2.4,-1.2,3.75,9.4,2951.4275,129.95,39.847500000000004,420.30999999999995,1299.2399999999998,595.96,2505.4875,1255.3400000000001,3
40.75475432388227,9.710818709048171,7.010706098532443,28.31254139069822,37.79219496139381,19.2067696398952,49.24428900898052,47.942152642533685,4.35,0.9,-1.25,-3.2,-3.35,-7.0,-9.7,-8.65,1642.0274999999997,93.49000000000001,47.5875,791.3600000000001,1417.0275,319.9,2330.9099999999994,2223.6274999999996,3
48.31045435513932,9.661780374237452,6.621933252457322,24.841497539399672,37.612497922897916,16.653828388691892,47.91294188421329,46.94944089123959,6.1,0.65,-1.95,-3.0,-13.9,-5.35,-12.25,-16.85,2296.6900000000005,92.92749999999998,40.0475,608.1,1221.4899999999998,248.72750000000002,2145.5875,1920.3275,3
58.65193943937404,13.811227316933133,6.418722614352485,25.29229131573492,44.78113442064638,21.83689538373072,42.90920647133899,44.7744346697979,-5.25,-1.35,-1.8,-5.9,-7.75,-1.95,-5.5,-3.85,3412.4875,188.92750000000004,37.96000000000001,604.89,1945.2875,473.04749999999996,1810.95,1989.9275000000002,3
56.27477232295125,12.503999360204718,5.735852159879995,27.698375403622503,35.57878581402125,21.518596608515157,36.97161073039691,54.09436199827113,-8.85,0.65,-0.2,-2.1,-1.25,0.05,-0.8,-10.2,3088.5275,155.92749999999998,32.86000000000001,762.7899999999998,1264.2875,463.0475,1366.2599999999998,2822.1599999999994,3
49.116697771735424,11.113055385446435,6.041522986797286,27.256191957058125,32.645060882161026,16.0,36.6326357228087,54.30193366722772,-10.05,-0.6,1.2,-2.7,-0.7,-0.4,-5.45,-13.5,2311.4474999999998,123.14000000000001,35.06,735.6100000000001,1065.2100000000003,255.83999999999997,1312.2475,2766.45,3
30.183604821160774,11.269427669584644,6.534523701081817,27.58894706218416,30.301815127150387,17.73978579352073,49.18333050943175,37.20618228198104,-1.55,-4.5,-2.2,-7.45,-8.0,-2.8,-8.0,-2.9,908.6474999999998,106.75,37.86000000000001,705.6475000000002,854.2,306.85999999999996,2355.0,1375.89,3
34.60057802985378,11.530394615970435,5.267826876426369,26.273560854973578,34.72679081055432,15.9420826744814,46.35299343084543,36.823905279043935,14.4,-0.75,-2.85,-4.6,-3.55,-0.95,-5.1,0.6,989.8399999999999,132.3875,19.627499999999994,669.14,1193.3475,253.2474999999999,2122.590000000001,1355.6399999999999,3
40.98719312175451,8.55277732669336,4.806245936279167,23.441416339462084,32.341923257592455,14.158036587041297,38.17066936798463,52.12676855512914,18.15,1.25,0.5,1.3,2.4,1.85,-9.1,0.3,1350.5274999999995,71.5875,22.85,547.81,1040.2400000000002,197.02749999999997,1374.19,2717.1099999999997,3
46.9046905969968,5.224940191045253,4.301162633521313,18.323482201808694,24.78406746278746,13.531444860028806,40.24673899833377,52.99716973575098,4.25,0.9,0.1,-0.55,4.45,0.6,-6.3,3.6,2181.9875,26.490000000000002,18.490000000000002,335.4475,594.4475000000003,182.74000000000004,1580.11,2795.74,3
42.62980178232125,6.599242380758567,4.455333881989093,23.406195760951842,26.345777650318087,15.644487847162015,31.56184405258983,35.852475507278434,-10.1,-2.15,-0.65,-4.55,3.9,-3.85,4.55,3.7,1715.2899999999997,38.92750000000001,19.427499999999995,527.1475,678.89,229.92749999999995,975.4475000000002,1271.71,3
39.05828977310706,8.327664738688751,7.3006848993775915,22.019309707617992,23.46593275367506,14.323058332632735,32.207142065076184,43.73957018535962,-14.15,-4.55,-1.1,-0.85,-0.35,-5.55,7.6,6.05,1325.3274999999999,48.64750000000001,52.089999999999996,484.1274999999999,550.5275,174.3475,979.54,1876.5475000000001,3
45.9287491665079,10.430723848324238,6.899275324264136,16.355427233796124,26.803917624108607,15.883954167649817,44.40382866375376,49.547452003105064,-13.35,-3.9,-0.7,2.4,-6.75,-4.8,3.8,4.95,1931.2275000000002,93.58999999999997,47.11000000000001,261.74,672.8875,229.26000000000005,1957.2600000000002,2430.4474999999993,3
34.92921413373052,9.186947262284681,3.8275318418009276,17.58976975403601,29.979159427842536,15.569200364822851,44.04997162314637,35.814801409473155,-0.85,-1.3,0.75,2.9,-5.05,-0.9,-11.8,6.4,1219.3274999999999,82.71,14.0875,300.98999999999995,873.2475000000001,241.59,1801.1600000000003,1241.7399999999998,3
29.833705770487178,7.981227975693966,3.427827300200522,16.43319810627256,24.387496796514398,10.401922899156675,41.61610265269923,37.10525569242179,6.75,-0.7,0.55,-3.35,5.35,2.7,-11.5,6.3,844.4875,63.21,11.447499999999996,258.8275,566.1274999999999,100.91000000000001,1599.65,1337.1100000000001,3
33.32491560379411,9.510520490488416,4.43846820423443,12.463948010161147,19.51537855128616,13.260844618650804,34.29868802155558,44.89821822745308,3.75,-1.45,0.2,-5.65,1.85,3.05,-5.3,1.55,1096.4875,88.34750000000001,19.660000000000004,123.42750000000001,377.42749999999995,166.54750000000004,1148.3100000000002,2013.4475000000002,3
33.11948067225693,10.497618777608569,4.381780460041329,12.399596767637245,26.69737814842499,13.414544345597431,25.760434778939583,42.3869083562366,-0.9,-1.3,0.1,-4.15,-1.15,1.75,-2.1,-5.25,1096.09,108.50999999999996,19.19,136.5275,711.4274999999999,176.8875,659.1899999999998,1769.0875,3
34.62296925452813,10.276186062932103,4.979959839195493,16.986759549719896,28.391900253417347,11.987493482792805,28.892040426387332,32.47152598816385,-1.75,0.3,-0.1,-3.05,2.9,-4.0,0.15,0.4,1195.6875,105.50999999999999,24.790000000000003,279.2475,797.6899999999997,127.7,834.7275000000002,1054.24,3
32.31795166776509,7.797435475847171,5.9455865984779,16.677829595004262,29.64877737782791,12.18400590938793,40.51666323872192,33.50373113550191,9.05,-0.6,0.05,1.15,-1.15,-5.75,-10.7,5.1,962.5474999999999,60.44,35.3475,276.8275,877.7275000000002,115.3875,1527.1100000000001,1096.49,3
28.591956910991595,6.324555320336759,5.172040216394301,14.035668847618199,30.433534135883725,16.175598906995685,41.74685616905781,33.27311226801605,9.8,-1.7,-0.15,2.8,-4.5,-3.95,1.7,13.0,721.46,37.11,26.727500000000003,189.15999999999997,905.95,246.04749999999999,1739.9100000000003,938.1,3
36.66469691678904,7.962411694957753,4.954795656734998,13.935566009315876,35.084184471069015,16.80029761641144,37.5319863583051,33.96468754456605,-8.2,-2.5,-0.25,3.5,-12.8,-4.65,8.75,5.5,1277.06,57.15,24.4875,181.95,1067.06,260.6275,1332.0875,1123.35,3
39.82524325098341,7.9341036040626545,4.847679857416329,14.698639392814561,31.924911902775865,11.47170431975999,29.111853256019273,32.56531897586756,-10.15,-2.35,-0.1,5.15,-11.0,-4.6,1.5,-10.8,1483.0274999999997,57.42749999999999,23.490000000000002,189.52749999999997,898.2,110.43999999999998,845.25,943.8600000000002,3
41.56260338333007,6.789698078707183,4.201190307520001,15.968719422671311,24.59979674712781,14.844190782929193,33.50970008818342,38.50324661635691,-1.45,-1.7,-0.05,2.2,-0.55,2.45,-1.4,-8.9,1725.3474999999999,43.21,17.647499999999997,250.15999999999994,604.8475000000001,214.34749999999994,1120.94,1403.29,3
41.69832130913665,6.928203230275509,3.96232255123179,19.585709075752145,32.706268512320385,15.716233645501712,43.891343110002914,45.03887209955418,3.65,-1.6,-0.3,-7.3,-0.5,0.1,-2.35,1.4,1725.4275000000002,45.44000000000001,15.61,330.31000000000006,1069.45,246.9900000000001,1920.9274999999998,2026.5400000000002,3
37.14364010163786,10.779610382569492,3.8144462245521304,22.651710752170576,36.63468302032925,10.800462953040485,42.07136793592526,37.552629734813515,7.55,0.5,-0.15,-3.9,-7.5,-3.35,2.4,13.8,1322.6475,115.95,14.527500000000003,497.8899999999999,1285.85,105.42750000000001,1764.2400000000002,1219.7600000000002,3
42.609858014314014,11.513036089581236,4.398863489584555,14.781745499094482,31.272991542223778,9.457801012920498,29.085219614092654,35.84271195096711,-12.6,-2.45,-0.55,-2.8,-10.6,0.75,-1.15,5.0,1656.8400000000001,126.54749999999999,19.047499999999996,210.66000000000008,865.64,88.8875,844.6274999999998,1259.7,3
36.33730865102698,10.14889156509222,3.3166247903554,9.35147047260483,22.215985235861137,11.368817000902073,29.6968011745373,32.253681960359195,-12.4,-0.7,0.1,-1.75,-0.25,3.15,4.1,3.8,1166.6399999999996,102.50999999999999,10.99,84.3875,493.4875,119.32749999999999,865.0900000000001,1025.8600000000001,3
32.38595374541253,13.024976007655447,4.722287581247038,11.430223094935636,21.33775995740884,15.332971010211947,33.69718089098849,29.878085614710994,-0.15,0.85,-0.9,-0.05,5.9,4.3,5.1,4.9,1048.8274999999999,168.92750000000004,21.490000000000002,130.64750000000004,420.49000000000007,216.60999999999996,1109.49,868.6900000000002,3
33.64149223800871,12.190159966136621,5.310367218940701,8.888194417315589,16.748134224444225,16.36306817195357,41.694723886842084,38.237416230702614,2.15,-1.2,-2.2,-1.2,6.4,5.95,9.95,3.1,1127.1275,147.15999999999997,23.359999999999996,77.56000000000003,239.54000000000002,232.3475,1639.4475000000007,1452.49,3
38.370561632584945,8.645808232895291,4.544227107000705,6.148170459575759,20.67123605399542,16.416455159382004,49.61451400548029,41.76421913552317,1.6,-1.25,-1.95,-0.8,3.2,0.3,9.8,10.75,1469.74,73.1875,16.8475,37.16000000000001,417.06000000000006,269.40999999999997,2365.56,1628.6875,3
35.7603131977336,9.654014708917737,7.273238618387272,10.688779163215974,25.91235226682441,12.741663941573721,41.8604825581359,33.85705244110893,-2.8,-4.4,-3.7,-0.85,2.75,-3.05,7.1,3.6,1270.9600000000003,73.84000000000002,39.209999999999994,113.52749999999999,663.8875,153.0475,1701.8899999999994,1133.3400000000001,3
24.815317850069942,10.88806686239573,7.0178344238090995,12.670832648251654,22.169799277395363,10.564090116995406,37.49266594948938,35.03212811120672,4.5,-1.55,-1.65,-1.05,-2.7,1.5,11.1,2.95,595.55,116.14749999999997,46.52750000000001,159.4475,484.21000000000004,109.35,1282.49,1218.5475000000001,3
28.892040426387332,15.326447729333761,5.0,14.983324063771697,18.77098825315279,11.4564392373896,35.14825742479988,34.91776052383658,3.85,0.6,-1.0,-2.6,0.55,1.55,8.0,11.15,819.9275,234.54000000000002,24.0,217.73999999999995,352.0475,128.84750000000003,1171.4,1094.9274999999998,3
37.0621100316752,15.107944929738128,4.560701700396552,20.043702252827444,17.137677789012137,8.497058314499201,28.81926439033446,34.086654279937775,-13.2,0.45,-1.4,-1.55,0.3,1.9,-1.55,-2.1,1199.3600000000001,228.04749999999999,18.839999999999996,399.3475000000001,293.60999999999996,68.59,828.1475,1157.4899999999998,3
48.11652522782583,10.535653752852738,4.790615826801393,21.37171027316251,35.94440151122286,15.313392831113555,30.660234832760167,48.155477362393576,-15.6,1.6,-0.45,0.45,-1.6,5.0,-6.85,-5.45,2071.8399999999997,108.43999999999997,22.7475,456.54749999999996,1289.44,209.5,893.1274999999999,2289.2475,3
49.25241110849296,9.305912099305473,4.969909455915671,19.3920086633644,40.46974178321379,17.519988584471168,42.88589511715944,55.21367584213172,-12.3,-2.1,-0.8,-1.75,4.7,2.85,-5.0,-2.35,2274.5099999999998,82.19000000000001,24.059999999999995,372.9875,1615.7100000000003,298.8275,1814.2,3043.0274999999992,3
38.82138585882786,8.200609733428363,4.4777226354476225,14.710540438746634,28.833140654462184,13.736811857195978,42.58051197437626,44.15257636876924,-4.5,-5.35,-0.65,-1.4,5.75,-3.7,-2.5,-1.75,1486.85,38.627500000000005,19.627500000000005,214.44000000000005,798.2875,175.01000000000005,1806.85,1946.3875,3
33.50298494164363,9.50263121456368,4.283689998120779,11.584472366059664,26.267851073127396,15.537052487521564,36.93981591724572,43.38951486246418,9.25,0.6,-0.45,0.5,-2.0,-4.5,0.45,1.65,1036.8875,89.94,18.147500000000004,133.95,686.0,221.15,1364.3474999999999,1879.9275000000002,4
6.244997998398398,4.404543109109048,5.58121850495033,25.493136331177457,20.654297373670207,15.626899884494044,35.6391638510221,34.6063577973759,-0.6,-0.7,-1.75,11.0,1.2,-1.1,2.05,0.1,38.64,18.91,28.0875,528.9,425.15999999999997,242.99,1265.9475000000002,1197.5899999999997,4
6.053924347066125,5.6964901474504455,6.74166151627327,24.53161225847172,20.743673734418405,16.049922118191105,22.80021929719098,22.205855083738612,0.05,-1.25,-2.15,6.6,1.5,-1.3,-1.95,-2.3,36.6475,30.8875,40.8275,558.24,428.05,255.90999999999994,516.0475,487.80999999999995,4
5.205766033928148,6.822756041366275,6.957010852370434,26.362852652928137,19.108898450721853,13.418271125595876,17.45995418092499,20.43281674170255,0.0,-1.35,-2.5,3.9,1.95,0.25,0.05,-0.9,27.1,44.727500000000006,42.15,679.7899999999998,361.3474999999999,179.9875,304.84749999999997,416.68999999999994,4
5.630275304103699,6.507687761409578,6.587867636800241,29.50677888214842,26.432934002868468,13.044155779505243,17.10847743079436,20.036217207846395,-0.1,0.05,-2.0,-1.05,5.4,2.05,-5.4,1.15,31.689999999999998,42.347500000000004,39.4,869.5475,669.5399999999998,165.94749999999996,263.53999999999996,400.12750000000017,4
5.549774770204643,6.442049363362563,6.248999919987197,33.61324143845696,27.57988397365007,9.243916918709298,18.708286933869708,20.389948504103682,-0.4,-0.5,-1.35,-5.15,4.25,-1.45,-2.2,7.05,30.639999999999993,41.25,37.2275,1103.3274999999999,742.5875,83.3475,345.15999999999997,366.0475,4
5.894913061275798,5.504543577809154,5.89915248150105,34.539832078341085,27.487269780754872,17.06311812067185,24.17540072056718,25.897876360813836,-0.35,-1.0,-1.2,-10.9,-4.75,-3.55,-3.25,5.9,34.6275,29.3,33.36,1074.19,732.9875,278.5475,573.8875,635.8900000000001,4
6.148170459575759,5.5677643628300215,8.240145629781066,29.11786393264451,24.820354550247664,17.12162375477279,22.563244447552307,29.52456604253482,0.3,-1.0,0.1,-2.15,-0.75,-0.85,-2.8,3.2,37.71,30.0,67.88999999999999,843.2275,615.4875,292.42749999999995,501.2600000000001,861.46,4
6.752777206453653,6.507687761409578,7.694153624668538,37.4492990588609,21.27204738618265,13.948118152639804,25.49607812978302,25.284382531515377,-2.3,-2.45,0.9,5.25,3.6,-3.75,-12.25,-4.6,40.31,36.347500000000004,58.39,1374.8875,439.53999999999996,180.4875,499.9875,618.1399999999999,4
6.8044103344816,5.399073994677235,6.268971207462991,37.114013525890726,20.92606030766422,12.475976915656746,28.55170747958868,21.976123407006977,-1.0,-1.15,-1.4,9.35,-2.5,-2.25,-9.8,-1.15,45.3,27.827500000000004,37.339999999999996,1290.0275000000001,431.65,150.5875,719.1600000000001,481.62750000000005,4
5.735852159879995,5.357238094391549,8.694826047713663,23.718136520392996,26.7329384841996,13.908630414242806,21.77613372479146,23.021728866442675,-0.2,0.2,-3.5,8.25,-6.35,-1.55,2.4,6.3,32.86,28.660000000000004,63.35,494.4875,674.3275000000001,191.04749999999999,468.43999999999994,490.30999999999995,4
5.034878350069642,8.133265027035575,8.17618492941543,25.535269726399992,29.449108645254444,14.449913494550755,22.042005353415554,15.951488958714794,-0.85,0.55,-2.75,-4.75,-0.35,-1.5,-0.55,2.85,24.627499999999998,65.84750000000001,59.2875,629.4875,867.1274999999998,206.55,485.5475,246.32750000000001,4
4.283689998120779,7.661592523751182,6.545991139621257,32.1947200640105,32.589108610086285,15.899685531481433,18.13284313062902,14.974979131871937,0.45,-0.4,-2.75,2.5,-8.15,-1.9,-1.1,1.75,18.147499999999997,58.53999999999998,35.2875,1030.25,995.6274999999999,249.19,327.59,221.1875,4
4.732863826479693,6.284902544988268,6.3796551630946325,36.652421475258635,33.462665763504255,14.31258187749506,23.269078194032527,28.289574051229543,-0.6,-1.5,-2.7,2.1,-8.55,-3.35,-1.45,-0.9,22.040000000000003,37.25,33.40999999999999,1338.99,1046.6475,193.62750000000003,539.3475000000001,799.49,4
4.631414470763764,7.592759709091286,6.906518659932803,31.693847983480957,28.597202660400196,11.34019400186787,20.986900676374297,29.837057495671385,-2.05,-0.65,-0.9,-3.6,-3.7,-1.7,-5.05,-0.55,17.2475,57.227499999999985,46.89,991.5400000000002,804.11,125.70999999999997,414.94750000000005,889.9475000000002,4
3.7416573867739413,8.12403840463596,8.312640976248161,34.97927958091761,22.93141949378625,9.473647660748208,27.031463149448644,21.34478859112922,-1.9,-1.2,-2.9,-8.25,-5.95,0.05,-2.5,-0.3,10.39,64.56,60.69,1155.4875,490.44750000000005,89.74749999999999,724.45,455.50999999999993,4
3.8340579025361627,7.638717169787085,7.703895118704564,38.47141796191037,20.611889772653065,15.705094714773292,27.3970801363941,22.894322440290736,-0.1,0.35,-1.45,-1.75,1.05,-0.95,1.2,1.15,14.690000000000001,58.227499999999985,57.24749999999999,1476.9875,423.74749999999995,245.7475,749.1600000000003,522.8274999999999,4
5.300943312279429,6.9498201415576215,5.937171043518958,34.75413644445794,19.14157778240864,17.863370342687297,29.535571773710426,21.118712081942874,-0.4,1.6,0.85,2.25,5.0,3.8,-1.85,-1.3,27.940000000000005,45.739999999999995,34.527499999999996,1202.7875,341.4,304.66,868.9275,444.31000000000006,4
5.6258332716140815,9.777525249264253,5.678908345800274,34.46592520156684,22.134814207487715,15.282342752340035,30.30429012532714,14.691834466805021,-0.95,-0.3,-0.65,1.8,-2.05,4.15,-0.45,0.75,30.74749999999999,95.50999999999999,31.827499999999997,1184.66,485.74750000000006,216.32749999999996,918.1475,215.2875,4
6.670832032063167,10.259142264341596,5.371219600798314,36.63741257239654,25.65248525971704,21.095023109728988,25.702139988724674,20.471932004576413,-1.8,-1.85,0.15,1.1,-4.65,-3.4,0.5,-1.1,41.26,101.82749999999999,28.827499999999993,1341.0899999999997,636.4275,433.44000000000005,660.35,417.89,4
7.392563831310488,8.893818077743664,8.414273587185052,30.785548557724287,25.805038267749186,20.60461113440387,30.683057214039152,23.671713077003954,-3.15,-2.2,-1.3,-3.85,3.3,-1.45,-2.35,-4.35,44.7275,74.26000000000002,69.11000000000001,932.9275,655.0100000000001,422.44750000000005,935.9274999999998,541.4275,4
5.431390245600108,9.038805230781334,12.14701609449827,25.107767722360343,27.625169682736793,19.29248558377069,28.677517326295874,18.509457042279767,-0.8,-1.7,-0.55,-11.4,2.15,4.2,2.6,-0.1,28.860000000000007,78.81,147.2475,500.44000000000005,758.5275,354.56000000000006,815.6399999999999,342.59000000000003,4
5.049752469181039,10.322305943925514,10.805091392487155,24.66576574931336,36.110247852929504,15.043270920913443,16.27114009527298,16.893785839769603,-0.7,-0.25,-0.65,-6.3,7.75,0.6,5.45,-1.0,25.009999999999998,106.4875,116.32750000000003,568.71,1243.8875,225.94,235.04749999999999,284.4,4
5.2345009313209605,10.101980003939822,8.108637370113428,28.008927148321835,29.549111661774198,15.634896865665599,17.84656829757475,19.781304304822775,-1.8,-0.95,-3.55,-3.3,2.85,-3.05,-0.4,-6.7,24.159999999999997,101.14750000000001,53.147499999999994,773.61,865.0275000000001,235.14749999999998,318.34,346.40999999999997,4
4.868264577855234,10.825894882179487,8.622644605919925,34.43399483069021,28.1407178302189,17.803089619501442,20.22992832414391,18.413310403075272,-0.4,-1.6,-2.95,-3.1,-1.0,-2.55,-5.35,-2.95,23.540000000000003,114.64000000000001,65.6475,1176.09,790.9,310.44750000000005,380.62750000000005,330.34749999999997,4
5.138093031466052,10.435516278555651,7.355270219373317,33.4888040992807,20.359273071502333,19.350710581268068,24.08734107368433,16.936646657470305,0.0,-2.4,-0.3,-3.8,1.5,4.35,5.2,4.55,26.4,103.14000000000001,54.010000000000005,1107.06,412.25,355.5275,553.16,266.14750000000004,4
5.674504383644443,7.6452599694189605,6.685805860178712,27.680317917249432,28.223217392777883,22.52776065213762,22.692509777457406,19.72941965694886,-0.8,-1.65,0.6,-0.4,-0.75,3.4,5.05,2.55,31.56000000000001,55.72749999999998,44.339999999999996,766.04,795.9875,495.94000000000005,489.4475000000001,382.74749999999995,4
5.296225070746145,6.545991139621257,7.6452599694189605,33.544746235439014,30.792044427091877,18.902380802428038,26.1189586316147,18.70294094520966,-1.05,-0.45,-1.65,-3.05,-7.15,0.8,4.2,-2.8,26.94749999999999,42.6475,55.727500000000006,1115.9475,897.0274999999998,356.65999999999985,664.5600000000001,341.96,4
5.142956348249516,6.0,8.677557259966655,33.3391661563393,23.526580712037184,13.816656614391198,29.03015673398957,21.270872102478545,0.35,-0.5,-0.7,-5.2,-4.8,-0.9,9.25,-0.85,26.327500000000004,35.75,74.81,1084.46,530.46,190.09,757.1875,451.7275000000001,4
4.9899899799498595,5.70087712549569,11.661903789690601,42.462925005232506,24.90783009416918,15.31012736720371,23.331309436034662,23.386962179812922,0.2,-0.2,3.0,-1.7,-0.7,-0.6,3.75,-0.35,24.860000000000003,32.46,127.0,1800.2100000000003,619.9100000000001,234.04000000000002,530.2875,546.8275000000001,4
6.363961030678928,5.486346689738081,9.412757300600074,40.99207240430764,19.561441664662652,16.11365880239494,22.199099080818574,16.0312195418814,-1.0,0.8,3.0,0.25,0.65,0.15,2.4,-2.3,39.5,29.46,79.6,1680.2875,382.2275000000001,259.62749999999994,487.0400000000001,251.71000000000004,4
6.978538528947161,6.332456079595025,8.488227141164401,34.62224718298915,14.867750334196495,18.55666995988235,21.78187319768435,21.732464195300082,-2.2,-1.2,-0.65,6.0,1.75,-0.85,4.65,-3.6,43.86,38.660000000000004,71.62749999999997,1162.7,217.9875,343.62749999999994,452.8274999999999,459.34,4
7.242237223399963,7.389181280764467,14.377065069060514,37.265936188428164,23.453144778472673,21.874642854227357,20.525593779474445,27.0342375516677,-1.95,-2.6,0.0,6.85,-3.55,-1.9,-2.7,-7.15,48.64750000000001,47.84,206.7,1341.8274999999999,537.4475,474.89000000000004,414.01000000000005,679.7275000000002,4
6.614378277661476,8.74642784226795,13.39589489358587,31.5,28.16558183315232,21.259115691862633,20.24104740372889,21.612496385193452,-1.55,-1.1,0.65,1.85,-10.1,-0.05,-8.7,-7.1,41.34750000000001,75.29,179.0275,988.8274999999998,691.29,451.94750000000005,334.0099999999999,416.69000000000005,4
4.207136793592526,7.733045971672482,11.445523142259598,34.14308129035808,29.268583840015218,18.33030277982336,22.33047245357787,14.444722219551334,0.0,0.9,-1.1,9.95,-4.15,0.1,-0.65,0.05,17.7,58.989999999999995,129.79000000000002,1066.7475000000002,839.4274999999998,335.99000000000007,498.22749999999985,208.64749999999998,4
4.03732584763727,9.063663718386731,10.897247358851684,29.298464123567978,33.26259160077579,17.77779513888041,30.07158126869952,15.665248162732693,-0.7,1.05,-2.85,3.4,-8.2,-5.15,-2.7,-1.3,15.809999999999999,81.0475,110.62750000000001,846.8399999999998,1039.16,289.5275,897.0099999999999,243.71000000000004,4
4.753945729601885,9.497368056467012,7.677890335241837,37.05401462729781,39.50822699134954,18.42688253612097,27.65863337187866,26.69925092582187,-1.8,0.4,-1.95,-13.0,-4.7,0.05,-7.0,-7.95,19.360000000000003,90.03999999999998,55.147500000000015,1204.0,1538.8100000000002,339.5475,716.0,649.6475000000002,4
5.463515351859094,9.013878188659973,9.154233993076646,36.99189100329963,31.24579971772206,24.035390573069538,22.161904250312066,31.34724868309817,-0.25,0.35,-2.6,-3.9,11.9,3.9,-1.55,-6.15,29.7875,81.1275,77.03999999999999,1353.19,834.6899999999996,562.4899999999998,488.74750000000006,944.8274999999996,4
4.2485291572496005,8.228000972289685,8.264381404557755,26.647701589442946,34.77570991367394,22.802412153103454,23.08137777516758,16.11831256676703,-1.05,-1.8,-2.4,13.5,3.35,4.35,2.45,-1.3,16.947499999999998,64.46000000000001,62.53999999999998,527.85,1198.1275,501.02749999999986,526.7475000000002,258.10999999999996,4
3.721558813185679,7.095773389842717,7.063993204979744,33.4888040992807,33.87919715695754,16.86860990123371,21.63215199650742,19.406184581210187,-1.55,-1.25,-0.6,12.2,0.3,1.45,-2.25,-3.6,11.447499999999996,48.7875,49.540000000000006,972.6599999999999,1147.71,282.44749999999993,462.8875,363.64,4
3.492849839314596,7.433034373659253,8.160882305241266,38.82589342178748,24.850553313759434,16.96614275549985,16.341664541900254,17.749647883831386,-1.2,-1.65,0.3,14.95,3.65,-1.25,-4.05,-0.35,10.759999999999996,52.527499999999996,66.51000000000002,1283.9475,604.2274999999998,286.2875,250.64750000000004,314.92749999999995,4
3.0903074280724887,5.6258332716140815,9.736529155710468,33.59910713099382,21.431285542402723,17.252536045462996,19.340372281835734,17.511424842085237,-0.25,-2.95,1.1,10.0,-1.3,-3.45,0.25,1.25,9.4875,22.9475,93.58999999999999,1028.9,457.61,285.74749999999995,373.9875,305.0875,4
4.652956049652737,5.661271941887264,9.646242791885346,31.03385248402138,25.182335078383815,20.628863274548117,25.14358765172544,15.15915564930976,-0.95,-1.85,1.15,1.7,-2.55,-6.95,-3.1,-2.6,20.7475,28.627500000000005,91.72749999999999,960.2099999999998,627.6474999999999,377.24750000000006,622.5899999999999,223.0400000000001,4
4.6097722286464435,5.987486951969082,7.582875444051551,33.21596001924376,25.090834980127703,18.83082579177026,25.14358765172544,12.330855606972293,-2.45,-2.95,0.4,0.7,-8.15,-6.3,-7.5,-3.45,15.247500000000002,27.1475,57.33999999999999,1102.81,563.1274999999999,314.90999999999997,575.95,140.14749999999998,4
4.165333119931706,9.00555384193554,5.916079783099616,30.61780527732189,20.5851888502389,10.535653752852738,25.823438965405053,13.45548215412588,-0.05,-2.2,0.5,0.95,-8.55,-1.0,4.75,0.75,17.3475,76.26000000000002,34.75,936.5475,350.64750000000004,110.0,644.2875,180.4875,4
3.286335345030997,6.841052550594828,9.313968005098578,35.39562119810867,24.120530674095875,12.84912448379266,27.598913022073894,13.19469590403659,-0.4,-3.0,-1.35,4.55,4.4,-0.4,5.6,0.2,10.639999999999999,37.8,84.9275,1232.1475000000003,562.4399999999999,164.94,730.3399999999999,174.06000000000003,4
2.258317958127243,6.87386354243376,10.380269746013347,43.59529791158675,25.50098037331114,14.404860290887934,21.743964679883014,14.3020977482326,-1.0,-1.35,-1.75,8.05,9.0,1.5,-3.5,-1.95,4.1,45.42749999999999,104.6875,1835.7474999999995,569.3,205.25,460.55,200.7475,4
2.6645825188948455,8.021845174272562,8.538149682454625,34.53548899320813,16.70478973228936,14.820593780277497,18.11629101113139,13.023056476879765,-0.4,0.45,-1.4,0.8,-2.95,0.15,-0.7,-1.8,6.9399999999999995,64.14750000000001,70.94,1192.06,270.34749999999997,219.6275,327.7099999999999,166.35999999999999,4
2.8809720581775866,7.273238618387272,7.3824115301167,28.240927746800388,14.989996664442591,14.710540438746634,17.115782190715095,11.088282103193443,-0.5,0.1,-3.3,-11.75,-6.5,3.9,0.45,-2.85,8.05,52.89,43.60999999999999,659.4875,182.45,201.19,292.74750000000006,114.82750000000003,4
2.6267851073127395,5.612486080160912,9.143303560529969,34.468101195163044,17.97220075561143,17.142053552593985,18.1121506177483,12.660963628413123,-0.3,0.4,-1.0,-1.45,0.2,4.85,2.65,-5.0,6.8100000000000005,31.339999999999996,82.6,1185.9475,322.9599999999999,270.3275,321.0275000000001,135.3,4
3.3391615714128,6.54217089351845,8.294576541331088,32.19704955426817,15.865055940651454,16.772000476985447,20.155644370746373,13.382824813917276,-0.05,0.8,0.8,7.05,2.5,6.5,5.45,-1.2,11.147499999999999,42.160000000000004,68.16,986.9475,245.45,239.05,376.5475,177.66,5
61.189459876681376,18.2208671582886,9.86154146165801,9.664367542679656,11.119802156513398,21.589349225949356,69.98749888372923,59.956651007206865,6.15,3.8,-0.45,0.5,-2.25,0.6,8.05,1.8,3706.3275000000003,317.56000000000006,97.04750000000001,93.15,118.5875,465.73999999999995,4833.4475,3591.56,5
53.87903117169053,18.718974330876144,11.043097391583578,8.258329128825032,10.774970997640782,17.01910690958841,56.828689937389896,51.99615370390391,-2.65,-2.8,0.85,-1.5,-3.3,-4.75,-6.4,-20.7,2895.9275000000002,342.56000000000006,121.22749999999999,65.95,105.21000000000001,267.0875,3188.54,2275.1099999999997,5
64.4976743766781,18.23458252881047,11.519548602267365,12.776932339180638,9.947361459201128,13.202272531651511,45.460422347356165,57.71048431611019,15.35,2.6,1.2,0.75,1.85,2.4,17.75,-15.4,3924.3275000000003,325.7399999999999,131.26,162.6875,95.52749999999999,168.54000000000002,1751.5875,3093.34,5
72.91844759729872,20.410781464706343,13.281566172707194,15.57080601638849,12.2494897852931,17.538529014715003,44.644708533038944,69.18453584436337,9.4,2.9,-1.6,3.85,1.55,2.7,19.15,-10.5,5228.74,408.19,173.83999999999997,227.6275,147.64749999999998,300.30999999999995,1626.4274999999996,4676.25,5
65.06419906523095,21.963606261267753,14.032106042928838,17.95689282698986,12.567816039392046,19.146801299433804,39.45693855331404,69.90064377385949,-7.55,-4.5,-2.2,-2.45,-1.25,-0.5,11.25,-6.9,4176.3475,462.15,192.06,316.4475,156.3875,366.35,1430.2875,4838.49,5
63.632931725640304,22.685898703820396,11.242775458044157,15.713051899615174,10.809717850156867,18.152134860671346,50.39494022220882,63.497244034682325,-6.25,-7.55,-1.6,-6.9,-1.05,-4.8,-6.85,10.1,4010.0875,457.64750000000004,123.84,199.29000000000002,115.74750000000002,306.46000000000004,2492.7275,3929.8899999999994,5
71.8672387113906,21.087911228948208,8.384509526501834,10.786565718522276,13.44804818551748,19.749683541768462,53.71405775027613,64.2339474110069,-0.7,-6.4,0.3,-5.05,-6.25,-11.05,-22.5,-26.5,5164.409999999999,403.74000000000007,70.21000000000002,90.8475,141.7875,267.94750000000005,2378.95,3423.75,5
67.71336647959545,23.140872930812268,7.7781745930520225,10.373041983911952,14.785127662620976,21.49534833400008,53.34369690975683,63.07099174739525,-15.0,-7.3,-0.6,-4.1,-5.4,-7.45,-16.75,-19.05,4360.1,482.21000000000004,60.139999999999986,90.78999999999999,189.44,406.54749999999996,2564.9875,3615.047499999999,5
58.15840437976269,25.624207304812376,10.382677881933928,10.375451797391765,13.48703080740902,21.63792966066763,62.53039261031391,66.24537719720524,-19.3,-8.0,-4.7,-3.95,-1.8,-9.2,-26.85,-1.75,3009.91,592.6,85.71000000000001,92.0475,178.66,383.56000000000006,3189.1274999999996,4385.3875,5
46.44351407893249,21.11279233071741,10.413932974625869,10.039920318408907,17.425555945220225,23.18943725061046,54.41874676984026,64.28296819531593,-10.6,-1.45,-4.65,-0.3,-0.95,-2.15,-7.9,0.3,2044.6400000000006,443.6474999999999,86.82750000000001,100.71000000000001,302.74749999999995,533.1275,2898.9900000000002,4132.209999999999,5
44.58923636933021,18.79893614011176,8.117881497040962,8.258329128825032,17.268468374467957,19.742087022399634,42.01190307520001,51.11946791585374,18.4,10.5,-1.0,2.7,2.6,6.65,8.8,0.2,1649.64,243.15,64.9,60.910000000000004,291.44,345.52750000000003,1687.56,2613.1600000000003,5
58.89821729050889,18.066543665017942,9.736529155710468,7.039176088151226,12.680693987317888,14.261837188805655,58.74223352920793,46.602038582019134,5.9,6.7,0.7,-1.45,0.6,3.4,3.75,0.05,3434.190000000001,281.50999999999993,94.31,47.447500000000005,160.44000000000003,191.83999999999997,3436.5875,2171.7475,5
49.78051827773592,13.638181696985855,8.387490685538792,11.532562594670797,10.871982339941507,17.23658898970443,65.37354204875241,55.2589359289518,-7.9,-0.8,0.95,-3.2,-2.8,1.8,-1.1,-2.65,2415.6899999999996,185.35999999999999,69.44750000000002,122.76000000000002,110.36000000000001,293.86,4272.49,3046.5275000000006,5
62.992459866241134,23.80231081218796,7.563068160475615,11.8911731969558,10.293201639917484,17.58124000177462,50.64632267006164,50.285683847393386,6.55,-3.05,-0.8,-2.6,-1.85,2.2,2.85,-19.05,3925.1475,557.2475,56.56,134.64000000000001,102.52749999999999,304.25999999999993,2556.9275000000002,2165.7475000000004,5
66.29743584785162,22.805701041625536,8.663140308225419,12.788666857808128,10.111874208078342,18.536450577173614,54.26140433125556,48.589607942439706,6.65,-5.3,-0.15,-3.05,-2.85,-0.5,-3.2,-17.85,4351.1275000000005,492.0100000000001,75.02749999999999,154.2475,94.1275,343.35,2934.0599999999995,2042.3274999999999,5
68.79244144526345,16.332482971061076,10.920164833920778,12.26580612923586,14.969969939849578,16.949926253526886,56.234775717521984,58.764359947165254,-1.8,-5.25,-1.25,-2.15,-1.7,-3.6,0.95,0.05,4729.160000000001,239.1875,117.6875,145.8275,221.21000000000004,274.34000000000003,3161.4474999999993,3453.2475,5
62.23905526275282,13.166244718977389,9.604686356149273,7.582875444051551,16.66283289239858,13.69854006819705,55.58776843874919,64.85907800763128,-4.1,0.55,-3.95,2.0,3.75,2.95,2.6,12.6,3856.8900000000003,173.04749999999996,76.64750000000002,53.5,263.5875,178.9475,3083.2400000000002,4047.9399999999996,5
44.80290169174314,13.0843417870369,6.749074010558782,8.461678320522472,16.647822680458848,14.244297104455523,51.031852798031935,59.889064110236355,-8.5,-0.7,-1.55,-0.5,5.35,6.4,-11.85,-14.7,1935.05,170.70999999999998,43.147499999999994,71.35,248.5275,161.94,2463.8275000000003,3370.6099999999997,5
61.05038902414955,17.826945896591486,8.660254037844387,8.494115610232768,14.539601094940673,14.99166435056495,46.06625663107433,63.41726894151151,5.85,-1.2,-2.4,-0.85,2.0,6.45,6.0,-8.55,3692.9275000000007,316.36,69.24,71.42750000000001,207.4,183.1475,2086.1,3948.6475000000005,5
83.70304653953761,24.86463351831271,9.1706052144883,10.205390732353171,12.310564568694646,18.873261509341727,50.09441086588403,58.49316199351852,31.8,4.35,-4.7,2.45,2.25,7.4,21.05,10.95,5994.96,599.3275,62.00999999999999,98.14750000000001,146.4875,301.44000000000005,2066.3475000000008,3301.547499999999,5
80.55463984153862,22.303587155433092,10.844353369380768,10.166120203892929,11.377609590770813,18.837462674150146,70.24777576550022,58.19707896449787,15.55,-0.65,-3.8,0.85,1.15,1.15,0.75,-19.4,6247.2475,497.0275,103.16000000000001,102.62750000000001,128.1275,353.52750000000003,4934.1875,3010.54,5
66.40481910223083,18.591664799043684,9.536770941990795,14.244297104455523,10.700467279516348,18.73232500251904,62.700478467073914,59.48949487094339,12.1,0.05,-2.45,2.3,2.2,3.0,-2.65,-24.7,4263.1900000000005,345.6474999999999,84.9475,197.61000000000004,109.66000000000001,341.9,3924.327500000001,2928.9099999999994,5
58.700085178813836,21.216738674923626,9.052623929005335,13.899640283115243,9.5524865872714,14.68672870315238,42.29125205051276,44.5864329140603,-0.9,-1.05,0.25,-1.5,0.25,1.1,-8.15,-6.15,3444.890000000001,449.0475,81.8875,190.95,91.1875,214.49000000000007,1722.1274999999998,1950.1275,5
55.231784327504755,18.885179374313605,9.249324299644812,7.742738533619742,10.63014581273465,13.367871932360812,50.510889914948045,45.182408081021975,4.75,-0.35,0.05,-2.05,0.2,0.4,-9.75,-2.75,3027.9875,356.52750000000003,85.54750000000001,55.7475,112.96,178.54000000000002,2456.2875,2033.8875,5
44.89710458370339,15.701910711757344,7.231873892705818,7.049822692805827,9.836157786453,15.617298101784444,55.957126445163354,47.44312384318722,-9.75,-2.55,-1.6,-0.3,0.55,0.1,-8.1,-9.95,1920.6875,240.04749999999996,49.74000000000001,49.61,96.4475,243.89000000000001,3065.5900000000006,2151.8475,5
41.576435633661525,13.548062592119953,8.958236433584458,5.412947441089743,6.6332495807108,13.994641831786907,48.620983124572874,52.6284143785465,-9.1,-5.65,-1.55,-1.4,0.2,-1.25,-10.6,-24.35,1645.7899999999997,151.6275,77.8475,27.340000000000003,43.96000000000001,194.2875,2251.6400000000003,2176.827500000001,5
64.55152980371572,16.713766780711044,9.423375191511797,7.20416546173115,10.749418588928426,17.253985046939157,48.41797186995755,54.04350099688213,-1.6,-6.55,-1.7,-2.0,-1.95,-3.3,6.1,-19.5,4164.34,236.44749999999993,85.91,47.9,111.74750000000002,286.81,2307.0900000000006,2540.45,5
66.17816860566633,17.334935823359714,9.016651263079881,7.625614729318548,12.080976781701056,17.53995438990649,57.01403336021755,50.72869010727559,-1.05,-1.9,-4.1,-0.15,-1.55,-1.35,18.2,-3.7,4378.4475,296.89,64.48999999999998,58.12750000000001,143.54749999999999,305.8275,2919.3599999999997,2559.71,5
61.43655263766026,16.481808153233672,9.370165420097983,7.314369419163897,11.987493482792805,15.414279094398154,46.519888219986086,51.088648445618524,-2.35,-3.05,-0.3,-1.2,-3.0,-4.5,5.6,-5.55,3768.9275000000002,262.3475,87.71000000000004,52.06,134.7,217.35,2132.7400000000007,2579.2475,5
57.39991289191997,14.998333240730451,7.6583287994183165,11.76860229593982,10.75174404457249,15.81613100603305,43.4114040316597,54.271539502763325,-7.25,-1.25,0.05,-2.0,-2.2,-0.25,9.45,-5.0,3242.1875,223.3875,58.6475,134.5,110.76000000000002,250.0875,1795.2475000000002,2920.4,5
53.34041619635152,13.924798023669858,9.609890738192604,13.878040207464453,10.242070103255495,14.126216761751888,43.27123756030095,45.78864488058147,-13.3,-0.3,2.65,-3.2,0.2,0.65,7.9,-1.0,2668.3099999999995,193.81,85.32749999999999,182.35999999999999,104.86000000000001,199.12750000000003,1809.9900000000002,2095.6,5
61.560945411843704,13.992855319769443,12.475976915656746,21.79678875430966,9.268225288586807,9.902019995940222,45.18683436577517,46.76537180435969,-14.15,-2.9,-0.75,-3.7,0.0,-0.95,6.95,-2.2,3589.527500000001,187.39,155.0875,461.41,85.9,97.14750000000001,1993.5475000000001,2182.1600000000003,5
63.23527496579737,12.780845042484476,14.089002803605371,21.472074888095936,7.276675064890558,10.681760154581266,59.68500649241818,58.260621349244126,-21.1,-1.55,-1.0,-1.35,-2.15,0.7,2.6,-9.8,3553.4899999999993,160.94750000000005,197.5,459.2275000000001,48.327499999999986,113.60999999999997,3555.54,3298.2599999999998,5
57.605555287663016,10.401922899156675,13.514806694880988,18.271562604221895,9.785192895390463,11.445523142259598,52.664978875909554,60.87446098323992,-3.3,-1.7,-3.45,0.65,-4.35,-4.3,-10.3,-21.3,3307.5099999999993,105.30999999999999,170.74749999999995,333.4275,76.8275,112.50999999999999,2667.5099999999998,3252.01,5
52.08934631956903,14.946571513226704,11.787705459503133,29.34876488031481,11.164676439557038,14.489651479590528,40.94325341249764,50.836502633442436,4.5,-0.8,-6.85,-1.85,-1.75,-1.55,-1.05,4.35,2693.05,222.76,92.02749999999999,857.9275000000001,121.5875,207.54749999999996,1675.2475000000002,2565.4275000000002,5
66.3554820644082,16.90857770482189,10.421132376090421,16.927787805853427,8.381527307120106,15.15585695366646,50.18615346886031,57.92063535563125,-9.65,-4.1,-2.2,-0.25,-0.95,-0.8,-8.45,14.2,4309.927500000001,269.09000000000003,103.75999999999999,286.4875,69.3475,229.05999999999995,2447.2475,3153.16,5
73.18469785412795,12.769103335786738,8.893818077743664,10.959014554237985,6.9498201415576215,12.733813254481158,48.18817282279958,51.259145525457214,7.2,-1.75,1.6,-2.6,-1.5,-2.45,-11.3,-7.2,5304.16,159.9875,76.53999999999998,113.34000000000003,46.05,156.14749999999998,2194.4099999999994,2575.6599999999994,5
64.36186759254271,11.61464592658769,8.372574275573792,7.249137879775773,6.111464636239009,11.384199576606166,35.681227557358504,50.68431710105208,17.45,4.8,-0.2,1.15,0.85,1.0,7.55,-4.1,3837.9474999999998,111.86000000000001,70.06000000000002,51.2275,36.627500000000005,128.6,1216.1475000000005,2552.09,5
52.63316444980294,16.11521020650987,8.464632301523794,8.494115610232768,8.267405880927825,14.427404478976806,36.61079075900984,51.41886813223333,9.75,0.0,-1.25,-0.15,-2.05,-4.25,6.05,0.0,2675.1875,259.7,70.0875,72.12749999999998,64.14750000000001,190.0875,1303.7475,2643.9,5
63.11378613266677,17.78060741369653,7.971825386948713,12.251530516633421,9.836157786453,15.20526224699857,40.72407150568322,60.23661677086454,-5.35,-6.95,-0.45,-2.6,-2.55,-5.3,11.45,5.05,3954.7275,267.84749999999997,63.34749999999999,143.33999999999997,90.24750000000002,203.10999999999999,1527.3475000000003,3602.9474999999998,5
59.166713615004845,14.800337833982034,7.784600182411426,10.594810050208546,7.625614729318548,13.352902306240393,51.54755086325635,66.76376262614323,-7.8,-3.25,-1.2,-0.55,-0.65,-0.6,22.45,6.4,3439.859999999999,208.4875,59.160000000000004,111.94750000000002,57.7275,177.94000000000003,2153.147499999999,4416.44,5
47.20752058729626,14.019629096377694,8.952653238007155,6.252999280345393,6.6783231428256,12.103718436910205,53.07164968229271,62.62507485025467,4.65,-0.85,-1.55,0.5,0.8,1.4,17.5,15.7,2206.9275000000002,195.82750000000007,77.7475,38.85,43.959999999999994,144.54000000000002,2510.35,3675.4100000000008,5
50.53068374760033,14.534441853748634,9.589056262218927,7.854934754662192,10.288342918079666,18.926172354705006,53.99212905600223,55.45944464200845,2.75,2.35,-1.45,1.3,1.95,5.3,3.45,7.05,2545.7875,205.72750000000002,89.8475,60.01000000000001,102.04749999999999,330.11,2903.2475000000004,3026.0474999999997,5
55.53377350765928,16.295704955601032,8.167006795638168,9.121403400793104,11.762227680163312,24.815317850069942,56.05086975239546,56.25611077918558,-0.3,-3.35,-2.6,-1.2,-0.85,1.0,-6.2,-5.35,3083.9099999999994,254.32750000000001,59.94000000000001,81.75999999999999,137.6275,614.8,3103.2600000000007,3136.1274999999996,5
56.61669365125449,19.395875850293535,5.903388857258177,8.071554992688831,12.655038522264562,25.879528589215067,59.843963772464136,48.53761428006119,6.05,-4.8,0.45,-2.85,-4.05,-6.15,-4.3,1.0,3168.8475000000008,353.15999999999997,34.64750000000001,57.027499999999996,143.7475,631.9274999999999,3562.809999999999,2354.9,5
66.45035741062647,20.851858430365386,7.615773105863909,7.493330367733695,13.111064030047295,20.77257807784099,61.562569796914744,65.76397189951349,2.85,0.2,2.7,-0.15,-1.9,-1.6,0.85,-4.2,4407.527500000001,434.76000000000005,50.71,56.12750000000001,168.29,428.94000000000005,3789.2274999999995,4307.26,5
75.485429057534,18.08728835397943,8.142481194328912,6.992853494818835,9.052623929005335,13.287211897158862,60.62342781466584,63.01547429005038,0.55,0.75,1.9,-0.2,-0.65,-0.25,-5.8,-10.85,5697.7474999999995,326.5875,62.69,48.86000000000001,81.52749999999999,176.4875,3641.56,3853.2274999999995,5
71.64426006317603,19.00657780874821,7.365459931328117,9.1104335791443,9.82344135219425,16.89526560903971,54.24205010874866,46.722050468702676,7.6,-2.55,1.75,-2.1,-1.8,-3.15,-14.8,-12.15,5075.139999999999,354.7475,51.1875,78.58999999999999,93.26000000000002,275.52750000000003,2723.16,2035.3275,5
52.358380418038145,15.898113095584646,9.024965373894794,8.423182296495785,9.137833441248533,15.626899884494044,46.681902274864505,43.56661565924073,-0.2,-1.15,0.45,0.55,-0.1,0.6,1.0,-3.35,2741.3599999999997,251.42750000000007,81.2475,70.64750000000001,83.48999999999998,243.84000000000006,2178.2,1886.8274999999999,5
