emg_rms_0,emg_rms_1,emg_rms_2,emg_rms_3,emg_rms_4,emg_rms_5,emg_rms_6,emg_rms_7,emg_mean_0,emg_mean_1,emg_mean_2,emg_mean_3,emg_mean_4,emg_mean_5,emg_mean_6,emg_mean_7,emg_var_0,emg_var_1,emg_var_2,emg_var_3,emg_var_4,emg_var_5,emg_var_6,emg_var_7,label
2.4289915602982237,3.0659419433511785,1.746424919657298,1.7175564037317668,1.5652475842498528,1.746424919657298,2.224859546128699,12.463948010161147,-1.4,-1.2,-0.65,-0.55,-0.95,-1.05,-1.15,-3.15,3.939999999999999,7.959999999999999,2.627499999999999,2.6475,1.5474999999999999,1.9474999999999998,3.627499999999999,145.42750000000007,0
2.5787593916455256,3.7549966711037173,2.3021728866442674,1.760681686165901,1.51657508881031,1.7175564037317668,1.61245154965971,9.710818709048171,-1.25,-2.1,-1.0,-0.6,-1.0,-1.35,-1.0,-0.6,5.0875,9.690000000000001,4.3,2.7399999999999993,1.3,1.1275,1.6,93.94,0
2.4289915602982237,4.135214625627067,2.569046515733026,1.6733200530681511,1.3416407864998738,1.5491933384829668,1.5652475842498528,9.664367542679656,-0.7,-1.4,-1.5,-0.5,-0.7,-1.0,-0.65,1.0,5.409999999999999,15.14,4.35,2.55,1.3100000000000003,1.4,2.0275,92.4,0
2.1447610589527217,3.6945906403822333,2.280350850198276,1.9874606914351791,1.5491933384829668,1.3228756555322954,1.746424919657298,6.884765791223402,-0.9,-0.95,-1.4,-1.05,-1.0,-0.85,-0.75,0.7,3.79,12.747499999999999,3.2400000000000007,2.8475,1.4,1.0275,2.4875,46.91,0
2.04939015319192,3.3541019662496847,2.4083189157584592,1.9493588689617927,1.9493588689617927,1.61245154965971,1.7320508075688772,8.267405880927825,-0.9,-0.85,-1.3,-1.2,-1.5,-0.8,-0.6,-1.35,3.3899999999999997,10.5275,4.109999999999999,2.36,1.55,1.9599999999999997,2.6399999999999997,66.52749999999999,0
1.449137674618944,2.7658633371878665,2.449489742783178,1.5811388300841898,1.8439088914585775,1.7320508075688772,1.6583123951777,7.981227975693966,-0.4,-0.45,-0.9,-0.8,-1.2,-1.0,-0.65,-1.0,1.9400000000000002,7.447500000000001,5.1899999999999995,1.8599999999999999,1.9599999999999995,2.0,2.3275,62.7,0
1.6278820596099706,3.9370039370059056,2.8372521918222215,1.5329709716755893,1.4317821063276353,1.6431676725154984,1.8303005217723127,6.822756041366275,-0.55,-1.2,-1.15,-0.85,-0.85,-1.3,-1.05,0.25,2.3475000000000006,14.059999999999999,6.727499999999999,1.6275,1.3275000000000001,1.01,2.2475000000000005,46.4875,0
2.280350850198276,4.031128874149275,2.588435821108957,1.5491933384829668,1.3416407864998738,1.9364916731037085,1.61245154965971,8.163945124754331,-0.7,-1.55,-1.1,-0.7,-0.9,-1.15,-0.7,-1.95,4.71,13.8475,5.49,1.9099999999999997,0.9900000000000002,2.4274999999999998,2.1100000000000003,62.847500000000004,0
2.5199206336708304,3.9812058474788765,2.6832815729997477,1.6583123951777,1.4317821063276353,1.7888543819998317,1.6431676725154984,9.534149149242422,-1.05,-1.15,-0.9,-0.65,-0.95,-0.8,-0.7,-3.3,5.2475,14.5275,6.389999999999999,2.3275,1.1475,2.56,2.21,80.00999999999999,0
2.1908902300206643,3.774917217635375,2.9154759474226504,1.7888543819998317,1.4142135623730951,1.2041594578792296,1.61245154965971,8.674675786448736,-0.9,-0.25,-0.5,-1.0,-1.0,-0.55,-0.8,-1.35,3.9899999999999998,14.1875,8.25,2.2,1.0,1.1475000000000004,1.9599999999999997,73.42749999999998,0
1.70293863659264,3.1937438845342623,2.1563858652847827,2.0248456731316584,1.6431676725154984,1.5652475842498528,1.3038404810405297,7.625614729318548,-0.3,-0.8,-0.45,-1.4,-0.9,-0.65,-0.2,1.35,2.81,9.559999999999999,4.447500000000001,2.14,1.89,2.0275,1.6600000000000001,56.327499999999986,0
2.1213203435596424,2.588435821108957,2.7294688127912363,2.0371548787463363,1.6733200530681511,1.746424919657298,1.61245154965971,8.139410298049853,-0.8,-0.8,-1.05,-1.35,-0.9,-0.85,-0.5,-1.15,3.8600000000000003,6.0600000000000005,6.3475,2.3275,1.9900000000000007,2.3275,2.35,64.9275,0
2.280350850198276,2.8284271247461903,2.701851217221259,1.6278820596099706,1.7748239349298849,1.6278820596099706,1.91049731745428,8.969392398596462,-1.4,-0.6,-0.9,-0.85,-1.25,-1.15,-0.85,-3.55,3.2399999999999993,7.640000000000001,6.49,1.927499999999999,1.5875,1.3275000000000001,2.9275,67.8475,0
1.6733200530681511,3.5142566781611158,2.0,1.6278820596099706,1.746424919657298,1.5,1.6881943016134133,8.417244204607586,-0.8,-0.25,-0.6,-0.75,-1.05,-0.75,0.05,0.15,2.16,12.2875,3.6399999999999997,2.0875,1.9474999999999998,1.6875,2.8475000000000006,70.82749999999999,0
1.466287829861518,5.2345009313209605,2.085665361461421,1.51657508881031,1.70293863659264,1.2449899597988732,1.449137674618944,7.024955515873392,-0.45,-1.2,-0.85,-0.8,-1.1,-0.75,0.0,1.65,1.9475000000000002,25.959999999999997,3.6275,1.6599999999999997,1.69,0.9875,2.1,46.62749999999998,0
1.3228756555322954,5.705260730238365,2.5099800796022267,1.5968719422671311,1.51657508881031,1.3038404810405297,1.7888543819998317,7.151922818375489,-0.25,-1.15,-1.0,-0.25,-1.0,-0.8,-0.7,0.65,1.6875,31.2275,5.3,2.4875,1.3,1.06,2.7100000000000004,50.727500000000006,0
2.179449471770337,4.847679857416329,2.4899799195977463,1.7888543819998317,1.378404875209022,1.5329709716755893,2.202271554554524,8.958236433584458,-0.95,-0.3,-0.2,-0.3,-0.8,-0.75,-0.95,-2.45,3.8475,23.409999999999997,6.16,3.1100000000000008,1.26,1.7875,3.9474999999999993,74.2475,0
2.280350850198276,4.330127018922194,2.4392621835300936,1.70293863659264,1.3416407864998738,1.5,1.9748417658131499,9.594269122762817,-1.3,-1.15,-0.15,-0.7,-0.8,-0.95,-0.7,-2.35,3.5100000000000007,17.427500000000002,5.9275,2.4100000000000006,1.1600000000000001,1.3475000000000001,3.41,86.5275,0
2.3664319132398464,4.58257569495584,2.3664319132398464,1.6431676725154984,1.2449899597988732,1.2649110640673518,1.91049731745428,8.862843787408192,-1.0,-2.0,-0.8,-0.3,-0.85,-0.6,-0.85,-1.35,4.6,17.0,4.960000000000002,2.61,0.8275000000000002,1.2400000000000002,2.9274999999999993,76.72749999999999,0
1.9235384061671346,3.905124837953327,2.3130067012440754,1.746424919657298,1.3601470508735443,1.378404875209022,1.9235384061671346,5.495452665613635,-0.6,-1.75,-0.95,-0.65,-1.05,-0.7,-1.0,-0.5,3.34,12.1875,4.4475,2.6275,0.7475,1.4099999999999997,2.7,29.95,0
2.3664319132398464,3.8144462245521304,2.280350850198276,2.345207879911715,1.378404875209022,1.396424004376894,1.91049731745428,8.40535543567314,-1.0,-1.25,-0.8,-0.8,-0.9,-1.15,-0.85,-1.15,4.6,12.9875,4.5600000000000005,4.859999999999999,1.09,0.6275000000000002,2.9275,69.3275,0
2.5298221281347035,4.43846820423443,2.479919353527449,2.701851217221259,1.3416407864998738,2.0371548787463363,3.248076353782343,9.273618495495704,-1.5,-1.1,-1.35,-0.4,-0.8,-1.15,-0.35,-1.4,4.15,18.490000000000002,4.327499999999999,7.140000000000002,1.16,2.8274999999999997,10.427499999999998,84.03999999999999,0
2.0615528128088303,4.295346318982906,2.179449471770337,2.355843797877949,1.396424004376894,2.0615528128088303,2.9832867780352594,6.587867636800241,-0.95,-2.05,-0.95,-0.75,-0.75,-0.95,-0.2,-0.2,3.3475,14.247499999999999,3.8475000000000015,4.9875,1.3875,3.347500000000001,8.859999999999996,43.36,0
2.598076211353316,3.7013511046643495,1.9748417658131499,1.816590212458495,1.51657508881031,1.6733200530681511,2.8548204847240397,9.896969233053117,-1.25,-1.1,-1.0,-1.1,-0.9,-0.8,-0.55,-2.15,5.1875,12.489999999999998,2.9,2.0900000000000003,1.4900000000000004,2.1599999999999997,7.847499999999999,93.32749999999999,0
2.924038303442689,3.1064449134018135,2.2693611435820435,1.746424919657298,1.466287829861518,2.085665361461421,3.492849839314596,11.180339887498949,-1.25,-0.75,-1.05,-1.05,-1.05,-1.05,-0.3,-2.4,6.9875,9.0875,4.0475,1.9474999999999998,1.0475,3.2475,12.109999999999998,119.24000000000001,0
2.3874672772626644,3.82099463490856,2.3769728648009427,2.0124611797498106,1.378404875209022,1.9621416870348585,2.7294688127912363,13.838352503098047,-1.0,-1.9,-1.15,-0.95,-1.1,-0.95,-0.65,-2.3,4.7,10.99,4.327500000000001,3.1475,0.69,2.9475000000000002,7.027500000000002,186.20999999999998,0
1.6733200530681511,3.9560080889704965,2.0615528128088303,2.073644135332772,1.5652475842498528,1.51657508881031,1.91049731745428,14.47929556297543,-0.7,-1.65,-1.05,-1.2,-1.15,-0.8,-0.55,0.85,2.31,12.927500000000004,3.1475,2.8600000000000003,1.1275,1.6599999999999997,3.3475,208.9275,0
2.247220505424423,4.135214625627067,2.0371548787463363,1.9235384061671346,1.4832396974191326,1.5,1.6733200530681511,13.213629327327144,-0.85,-1.3,-0.55,-0.8,-0.7,-1.05,-0.6,-1.3,4.327500000000001,15.409999999999997,3.847499999999999,3.0599999999999996,1.7100000000000002,1.1475000000000002,2.44,172.90999999999994,0
2.4186773244895647,3.278719262151,2.6551836094703507,1.4832396974191326,1.51657508881031,1.3601470508735443,1.6583123951777,13.001922934704698,-1.05,-1.35,-0.95,-0.5,-0.7,-0.75,-0.95,-5.45,4.7475000000000005,8.9275,6.147500000000001,1.95,1.8099999999999998,1.2875,1.8475000000000006,139.3475,0
2.179449471770337,3.598610843089316,2.5592967784139455,1.5491933384829668,1.3038404810405297,1.5491933384829668,1.4832396974191326,10.0821624664553,-0.75,-1.15,-0.75,-0.8,-0.7,-0.4,-0.5,-1.35,4.1875,11.6275,5.9875,1.7600000000000002,1.2099999999999997,2.2399999999999993,1.95,99.82749999999997,0
1.4832396974191326,4.277849927241488,2.3345235059857505,1.5811388300841898,1.0,1.746424919657298,1.118033988749895,5.054700782440045,-0.7,-0.9,-0.65,-0.7,-0.6,-0.75,-0.35,2.05,1.7099999999999997,17.490000000000002,5.0275,2.0100000000000002,0.6399999999999999,2.4875,1.1275,21.347500000000004,0
1.7320508075688772,3.7815340802378077,2.8548204847240397,2.1330729007701543,1.0723805294763609,1.8439088914585775,1.61245154965971,7.365459931328117,-0.8,-1.9,-1.35,-1.05,-0.35,-0.5,-0.6,-0.95,2.3600000000000003,10.69,6.327500000000001,3.4475000000000002,1.0274999999999999,3.15,2.2399999999999998,53.347500000000004,0
1.8439088914585775,4.58257569495584,2.6267851073127395,3.478505426185217,1.6733200530681511,1.7748239349298849,2.0371548787463363,8.997221793420456,-0.8,-2.5,-1.0,-1.1,-0.7,-0.55,-0.85,-2.35,2.76,14.75,5.9,10.890000000000002,2.31,2.8475000000000006,3.4274999999999998,75.42749999999998,0
2.4289915602982237,4.695742752749559,2.949576240750525,3.1144823004794873,1.70293863659264,1.4832396974191326,2.280350850198276,11.502173707608488,-0.9,-0.25,-0.1,-0.3,-1.1,-0.6,-0.8,-1.7,5.090000000000001,21.9875,8.690000000000001,9.609999999999998,1.6900000000000002,1.8399999999999999,4.5600000000000005,129.41,0
2.2693611435820435,3.598610843089316,3.146426544510455,1.224744871391589,1.161895003862225,1.5329709716755893,1.8708286933869707,12.36931687685298,-0.15,0.95,0.0,-0.2,-0.55,-0.75,-0.6,0.9,5.1274999999999995,12.047500000000001,9.9,1.46,1.0474999999999999,1.7875,3.14,152.19,0
1.816590212458495,3.456877203488721,2.2693611435820435,2.258317958127243,1.5811388300841898,1.2449899597988732,2.0248456731316584,12.551892287619426,-0.4,-0.05,-0.75,-0.2,-0.8,-0.55,-1.0,-1.25,3.1399999999999992,11.947500000000002,4.5875,5.06,1.86,1.2474999999999996,3.1,155.9875,0
1.5329709716755893,3.9115214431215892,2.3130067012440754,2.6172504656604803,1.746424919657298,1.02469507659596,1.746424919657298,8.87693640846886,-0.45,-0.5,-1.25,-0.15,-1.15,-0.75,-0.95,-2.5,2.1475000000000004,15.05,3.7875,6.827500000000001,1.7274999999999998,0.4875,2.1475,72.55,0
1.449137674618944,3.8144462245521304,2.355843797877949,2.073644135332772,1.5968719422671311,1.51657508881031,1.7320508075688772,10.823585357911675,0.0,-1.25,-1.15,-0.2,-0.95,-0.9,-0.7,2.65,2.1,12.9875,4.227500000000001,4.26,1.6474999999999997,1.49,2.5100000000000007,110.12750000000001,0
1.51657508881031,3.7416573867739413,2.179449471770337,1.449137674618944,1.449137674618944,1.8708286933869707,2.1908902300206643,9.889388252060893,-0.5,-0.9,-0.85,-0.5,-0.6,-0.8,-1.0,0.9,2.05,13.189999999999998,4.027499999999999,1.85,1.7399999999999995,2.8600000000000003,3.8,96.99,0
2.280350850198276,3.5142566781611158,2.5,7.365459931328117,1.3038404810405297,1.6881943016134133,2.6551836094703507,10.620734437881403,-1.3,-0.75,-1.65,-2.55,-0.6,-0.75,-1.55,-2.6,3.5100000000000002,11.7875,3.5275,47.747499999999995,1.3400000000000003,2.2875,4.647499999999999,106.04,0
2.819574435974337,5.324471804789654,2.7386127875258306,7.493330367733695,1.51657508881031,1.1832159566199232,2.4083189157584592,13.62350909274112,-1.45,-1.95,-1.4,-2.75,-0.8,-0.5,-1.6,-4.8,5.847499999999999,24.5475,5.54,48.5875,1.6600000000000001,1.15,3.2399999999999998,162.56,0
2.4899799195977463,5.490901565316938,2.280350850198276,2.6362852652928135,1.466287829861518,1.0723805294763609,1.6733200530681511,12.653062870309308,-1.0,-1.75,-0.4,-1.25,-0.65,-0.45,-0.8,-1.3,5.2,27.0875,5.04,5.3875,1.7274999999999996,0.9475000000000001,2.16,158.41000000000003,0
2.2135943621178655,4.4328320518603,1.8973665961010275,2.1563858652847827,1.5652475842498528,1.2649110640673518,1.4142135623730951,10.062305898749054,-0.9,-1.55,-0.3,-0.75,-0.75,-0.4,-0.6,2.55,4.090000000000001,17.247499999999995,3.5100000000000002,4.0875,1.8875,1.44,1.64,94.74750000000003,0
1.8027756377319946,4.306971093471606,2.711088342345192,1.284523257866513,1.70293863659264,1.5,1.8841443681416772,8.294576541331088,-0.95,-1.25,-0.15,-0.75,-1.0,-0.75,-1.15,0.0,2.3474999999999997,16.9875,7.327499999999999,1.0875,1.9,1.6875,2.2275,68.8,0
2.1330729007701543,3.0740852297878796,2.5495097567963922,1.449137674618944,1.5652475842498528,1.3601470508735443,1.9493588689617927,8.729261137118078,-1.45,-1.15,-0.6,-0.9,-0.85,-0.85,-1.2,-2.7,2.4475000000000002,8.127500000000001,6.139999999999999,1.2900000000000003,1.7274999999999996,1.1275,2.36,68.91,0
2.0371548787463363,2.711088342345192,1.8027756377319946,1.6431676725154984,1.284523257866513,1.396424004376894,1.3228756555322954,8.387490685538792,-1.25,-0.65,-1.05,-0.5,-0.85,-0.65,-0.45,-0.75,2.5875,6.9275,2.1475,2.45,0.9275000000000002,1.5275,1.5475,69.7875,0
2.0976176963403033,3.449637662132068,2.202271554554524,2.1330729007701543,1.466287829861518,1.0723805294763609,1.6278820596099706,8.04673846971554,-0.8,-0.5,-0.95,-0.25,-1.15,-0.45,-0.75,0.35,3.7600000000000002,11.65,3.9475000000000002,4.4875,0.8275000000000002,0.9475,2.0875,64.6275,0
1.9493588689617927,3.6742346141747673,2.0976176963403033,1.9621416870348585,1.5491933384829668,1.0,1.6733200530681511,7.628892449104261,-0.6,-0.4,-0.9,-0.65,-1.2,-0.4,-0.9,0.3,3.44,13.339999999999998,3.590000000000001,3.4275000000000007,0.9599999999999997,0.8399999999999999,1.9900000000000002,58.110000000000014,0
1.816590212458495,3.9560080889704965,2.085665361461421,1.4142135623730951,1.378404875209022,1.02469507659596,1.70293863659264,10.27131929208707,-0.8,-1.35,-0.55,-0.6,-0.8,-0.45,-0.7,-2.6,2.66,13.827500000000004,4.047500000000001,1.6400000000000001,1.26,0.8475000000000001,2.4099999999999997,98.73999999999998,0
1.8303005217723127,4.455333881989093,2.1095023109728985,1.8439088914585775,1.0954451150103321,1.0,2.179449471770337,9.91463564635635,-0.45,-1.55,-0.45,-0.8,-0.4,-0.4,-0.75,-1.8,3.1475,17.447499999999998,4.247500000000001,2.76,1.04,0.8400000000000001,4.1875,95.06,0
1.2449899597988732,5.445181356024793,2.7294688127912363,1.6733200530681511,1.449137674618944,1.466287829861518,1.1832159566199232,3.7013511046643495,-0.55,0.45,-0.85,-0.5,-0.7,-0.65,-0.5,0.4,1.2474999999999996,29.447499999999998,6.727499999999999,2.55,1.6099999999999999,1.7275000000000003,1.15,13.540000000000001,0
1.6733200530681511,4.795831523312719,2.7658633371878665,1.746424919657298,1.5329709716755893,1.760681686165901,1.2449899597988732,5.504543577809154,-0.8,-0.2,-1.25,-0.45,-0.95,-0.9,-0.65,-1.0,2.1599999999999997,22.96,6.0875,2.8475000000000006,1.4475000000000002,2.2900000000000005,1.1275,29.3,0
1.9235384061671346,3.4351128074635335,2.29128784747792,1.9748417658131499,1.466287829861518,1.816590212458495,1.466287829861518,7.12039324756716,-0.9,-1.1,-1.05,-0.9,-1.05,-1.3,-0.95,-2.1,2.89,10.59,4.147500000000001,3.0900000000000007,1.0475,1.6099999999999999,1.2474999999999998,46.290000000000006,0
1.746424919657298,4.06201920231798,1.857417562100671,1.5329709716755893,1.4142135623730951,1.5652475842498528,1.378404875209022,9.096702699330127,-0.45,0.4,-0.45,-0.55,-0.7,-1.05,-0.7,-1.25,2.847500000000001,16.34,3.2475,2.0475000000000003,1.5099999999999998,1.3475000000000001,1.4099999999999997,81.1875,0
1.51657508881031,4.663689526544408,2.04939015319192,1.5811388300841898,1.3601470508735443,1.224744871391589,1.396424004376894,7.92148975887743,-0.1,0.15,-0.2,-0.6,-0.85,-0.7,-0.45,0.05,2.2900000000000005,21.7275,4.16,2.1399999999999997,1.1275000000000002,1.0099999999999998,1.7474999999999994,62.7475,0
1.5652475842498528,4.47213595499958,2.355843797877949,1.6431676725154984,1.396424004376894,1.3601470508735443,1.5329709716755893,6.711929677819934,-0.45,-0.3,-0.35,-0.9,-0.85,-0.95,-0.55,0.05,2.2474999999999996,19.91,5.427499999999998,1.8900000000000006,1.2274999999999998,0.9475,2.0475000000000003,45.04750000000001,0
1.91049731745428,3.714835124201342,2.085665361461421,1.466287829861518,1.3228756555322954,1.449137674618944,1.6733200530681511,8.35463942968217,-0.65,-0.4,-0.75,-0.75,-0.75,-0.9,-0.6,-0.8,3.2275,13.639999999999997,3.7875,1.5875,1.1875,1.29,2.4399999999999986,69.16000000000001,0
1.8841443681416772,3.924283374069717,1.70293863659264,1.61245154965971,1.396424004376894,1.70293863659264,1.4317821063276353,8.402380615040002,-0.95,-1.9,-1.2,-1.0,-0.95,-1.0,-0.65,-2.5,2.6475,11.79,1.46,1.6,1.0474999999999999,1.9,1.6275,64.35,0
1.5,4.11703777004778,1.7320508075688772,1.6881943016134133,1.284523257866513,1.61245154965971,1.3416407864998738,7.1867934435323795,-1.05,-1.45,-1.1,-1.05,-0.65,-0.9,-0.9,-2.95,1.1474999999999997,14.847499999999997,1.7899999999999998,1.7475,1.2274999999999996,1.7899999999999998,0.9900000000000005,42.94750000000001,0
1.5652475842498528,4.05585995813465,2.1447610589527217,1.9493588689617927,1.0,1.3416407864998738,1.3038404810405297,6.375735251718032,-0.65,0.05,-0.9,-1.1,-0.5,-0.7,-0.6,-0.65,2.0274999999999994,16.447499999999998,3.79,2.59,0.75,1.3099999999999994,1.3400000000000003,40.2275,0
1.9364916731037085,3.847076812334269,2.4289915602982237,1.760681686165901,1.284523257866513,1.161895003862225,1.3228756555322954,6.576473218982953,-0.85,-0.7,-0.1,-0.7,-0.55,-0.55,-0.55,-0.75,3.0275,14.309999999999993,5.8900000000000015,2.6100000000000003,1.3475,1.0475,1.4474999999999998,42.6875,0
2.280350850198276,3.9115214431215892,2.2693611435820435,1.378404875209022,1.161895003862225,1.2449899597988732,1.396424004376894,5.352569476429054,-1.1,-1.9,-0.25,-0.6,-0.45,-0.45,-0.95,-1.95,3.9900000000000007,11.690000000000001,5.0875,1.5400000000000003,1.1474999999999995,1.3475000000000001,1.0475,24.847500000000004,0
2.0,3.5496478698597698,2.4698178070456938,1.3228756555322954,1.0,1.378404875209022,1.140175425099138,4.571651780264984,-0.6,-1.3,-1.5,-0.75,-0.5,-0.7,-0.5,-0.2,3.6399999999999997,10.909999999999998,3.85,1.1875,0.75,1.4099999999999995,1.05,20.860000000000003,0
2.4289915602982237,3.427827300200522,3.082207001484488,1.8973665961010275,1.466287829861518,1.224744871391589,1.0,6.41482657598785,-0.7,-0.85,-1.5,-0.7,-0.85,-0.5,-0.2,0.75,5.409999999999999,11.0275,7.25,3.11,1.4275000000000002,1.25,0.96,40.5875,0
2.3979157616563596,4.538722287164087,3.0,1.7888543819998317,1.5,1.0723805294763609,1.3601470508735443,6.565059024867941,-1.05,-0.1,-0.9,-0.5,-0.45,-0.45,-0.75,-0.1,4.6475,20.590000000000003,8.190000000000001,2.95,2.0475,0.9475000000000001,1.2875,43.08999999999999,0
1.7320508075688772,4.6475800154489,2.224859546128699,1.5329709716755893,1.118033988749895,1.2649110640673518,1.396424004376894,5.599107071667768,-0.8,-0.8,-1.15,-0.75,-0.25,-0.8,-0.95,-0.65,2.3600000000000003,20.959999999999997,3.6275,1.7875,1.1875,0.96,1.0474999999999999,30.9275,0
1.6881943016134133,4.080441152620633,2.0615528128088303,1.6881943016134133,1.0723805294763609,1.3038404810405297,1.378404875209022,5.142956348249516,-0.35,-0.75,-0.55,-0.85,-0.65,-0.8,-0.8,-1.15,2.7275,16.0875,3.9475000000000002,2.1275000000000004,0.7274999999999999,1.06,1.2600000000000002,25.127499999999998,0
1.5652475842498528,3.6674241641784495,2.04939015319192,1.5652475842498528,1.0488088481701516,1.2449899597988732,1.3416407864998738,3.943348830626071,-0.25,-0.35,-0.5,-1.05,-0.3,-0.75,-0.8,-1.35,2.3875,13.3275,3.95,1.3475000000000001,1.0100000000000002,0.9875,1.16,13.727500000000003,0
1.9621416870348585,3.721558813185679,2.3874672772626644,1.466287829861518,1.5,1.3228756555322954,1.3416407864998738,5.172040216394301,-0.25,-0.35,-0.7,-0.95,-0.45,-0.85,-0.9,-1.25,3.7875,13.727499999999997,5.209999999999999,1.2475,2.0475,1.0275000000000003,0.99,25.1875,0
1.8973665961010275,4.201190307520001,2.7202941017470885,1.61245154965971,1.7748239349298849,1.449137674618944,1.3038404810405297,5.272570530585627,-0.6,-1.15,-0.9,-1.1,-1.15,-0.8,-0.6,-1.4,3.2399999999999998,16.327499999999997,6.590000000000001,1.3900000000000003,1.8275000000000001,1.4599999999999997,1.3399999999999999,25.839999999999996,0
1.51657508881031,4.05585995813465,2.7386127875258306,1.396424004376894,1.70293863659264,1.7175564037317668,1.161895003862225,4.924428900898052,-0.6,-1.55,-1.5,-0.95,-1.0,-1.05,-0.55,-0.65,1.94,14.047499999999994,5.25,1.0475,1.9,1.8475000000000001,1.0474999999999999,23.827499999999997,0
1.6583123951777,2.9832867780352594,2.3345235059857505,0.9486832980505138,1.6583123951777,1.5652475842498528,1.61245154965971,4.460941604639093,-0.55,-0.7,-1.05,-0.3,-0.75,-1.05,-1.0,-0.3,2.4475000000000007,8.41,4.3475,0.8099999999999999,2.1875,1.3475000000000001,1.6,19.81,0
2.258317958127243,3.5637059362410923,1.9748417658131499,1.6583123951777,1.2449899597988732,1.5329709716755893,1.7888543819998317,8.309632964216892,-0.7,-1.0,-0.8,-0.45,-0.45,-1.15,-1.0,-2.75,4.609999999999999,11.7,3.2600000000000002,2.5475000000000003,1.3474999999999997,1.0275000000000003,2.2,61.4875,0
2.0371548787463363,4.538722287164087,2.073644135332772,2.0615528128088303,1.51657508881031,1.5652475842498528,1.6431676725154984,9.126883367283709,-0.85,-1.3,-0.9,-1.15,-0.7,-1.15,-0.6,-2.1,3.4274999999999984,18.91,3.4899999999999998,2.9275,1.81,1.1275000000000002,2.3400000000000007,78.89,0
1.224744871391589,5.545268253204709,2.5099800796022267,1.7320508075688772,1.4832396974191326,1.161895003862225,1.0723805294763609,5.5,-0.6,-0.55,-1.0,-0.8,-0.9,-0.65,-0.25,-0.35,1.1400000000000001,30.447499999999998,5.3,2.3600000000000003,1.3900000000000001,0.9275,1.0875,30.12750000000001,0
1.3601470508735443,5.1478150704935,2.4596747752497685,1.5811388300841898,1.2449899597988732,1.4832396974191326,1.0954451150103321,3.7549966711037173,-0.65,-0.5,-0.25,-0.5,-0.75,-1.0,-0.6,-1.9,1.4275000000000002,26.25,5.9875,2.25,0.9875,1.2,0.8399999999999999,10.49,0
1.5652475842498528,4.560701700396552,2.0371548787463363,1.746424919657298,1.5,1.5,1.5811388300841898,6.442049363362563,-0.85,-1.5,-0.65,-0.85,-0.75,-0.85,-0.8,-1.4,1.7274999999999996,18.55,3.7275,2.3274999999999997,1.6875,1.5275000000000003,1.8599999999999999,39.540000000000006,0
1.4832396974191326,4.318564576337836,1.816590212458495,1.746424919657298,1.61245154965971,1.161895003862225,1.8841443681416772,8.206704576137732,-0.6,-1.05,-1.2,-0.95,-0.9,-0.55,-0.85,-1.05,1.8399999999999994,17.547500000000003,1.86,2.1475,1.7900000000000003,1.0475,2.8274999999999997,66.24749999999999,0
2.085665361461421,4.024922359499621,2.258317958127243,1.8027756377319946,1.3038404810405297,1.0488088481701516,1.5329709716755893,9.922197337283713,-0.35,0.0,-0.9,-0.65,-0.8,-0.4,-0.75,-0.55,4.227499999999999,16.2,4.290000000000001,2.8275,1.0599999999999998,0.9400000000000002,1.7875,98.14750000000001,0
1.6278820596099706,4.295346318982906,2.4083189157584592,1.6431676725154984,1.02469507659596,1.3228756555322954,1.4832396974191326,8.10246875958186,-0.35,-1.45,-1.1,-0.5,-0.75,-0.55,-0.9,-0.25,2.5275000000000003,16.347499999999993,4.590000000000001,2.45,0.4875,1.4475,1.3900000000000001,65.5875,0
1.9621416870348585,4.012480529547776,2.4289915602982237,1.5968719422671311,1.0,1.0723805294763609,1.5329709716755893,7.768526243760782,-0.85,-2.1,-1.3,-0.95,-0.7,-0.65,-1.05,-2.85,3.1275,11.690000000000001,4.210000000000001,1.6474999999999997,0.51,0.7274999999999999,1.2474999999999998,52.22749999999998,0
2.179449471770337,4.669047011971501,3.0413812651491097,1.70293863659264,1.6278820596099706,1.3228756555322954,1.1832159566199232,5.70087712549569,-0.85,-1.8,-0.65,-1.1,-1.05,-0.75,-0.8,-0.7,4.0275,18.56,8.827500000000002,1.6900000000000002,1.5474999999999999,1.1875,0.7599999999999999,32.010000000000005,0
1.9493588689617927,4.5661800227323495,3.2093613071762426,1.8027756377319946,2.0248456731316584,1.5652475842498528,1.5968719422671311,5.361902647381804,-0.5,-1.75,-1.1,-1.15,-1.4,-1.05,-1.05,1.25,3.55,17.7875,9.09,1.9274999999999998,2.1399999999999997,1.3474999999999997,1.4474999999999998,27.1875,0
1.6431676725154984,3.681032463861192,2.29128784747792,1.5811388300841898,1.6431676725154984,1.3416407864998738,1.7175564037317668,4.364630568559039,-0.4,-0.85,-1.55,-0.6,-0.9,-0.9,-1.15,0.55,2.539999999999999,12.8275,2.847500000000001,2.1399999999999997,1.8900000000000006,0.99,1.6275,18.7475,0
1.466287829861518,3.6606010435446255,2.32379000772445,1.3601470508735443,1.5329709716755893,1.466287829861518,1.3601470508735443,3.892300091205713,-0.65,-0.4,-1.1,-0.55,-0.75,-0.95,-0.85,-0.15,1.7274999999999998,13.24,4.1899999999999995,1.5474999999999997,1.7875,1.2474999999999998,1.1275000000000002,15.127500000000003,0
1.6733200530681511,3.2171415884290826,2.6739483914241875,1.2649110640673518,1.3601470508735443,1.161895003862225,1.0,5.0099900199501395,-0.7,0.55,-0.35,-0.8,-0.55,-0.55,-0.6,-1.1,2.31,10.047500000000003,7.027500000000001,0.9600000000000002,1.5474999999999997,1.0474999999999999,0.6399999999999999,23.89,0
1.61245154965971,3.6606010435446255,2.7748873851023217,1.7748239349298849,1.4832396974191326,0.8366600265340756,1.2041594578792296,4.636809247747852,-0.5,-0.6,-0.7,-1.05,-0.7,-0.3,-0.65,-1.3,2.35,13.040000000000003,7.209999999999998,2.0475,1.7100000000000002,0.6100000000000001,1.0275,19.81,0
1.7320508075688772,4.207136793592526,3.331666249791536,1.5491933384829668,1.449137674618944,1.3416407864998738,1.3038404810405297,6.363961030678928,-0.7,-1.7,-1.8,-0.9,-0.7,-1.1,-0.6,-1.3,2.51,14.810000000000002,7.859999999999997,1.5900000000000003,1.6099999999999999,0.59,1.3400000000000003,38.81,0
2.2135943621178655,4.2895221179054435,3.24037034920393,1.449137674618944,1.4317821063276353,1.6881943016134133,1.4317821063276353,7.526619427073485,-1.2,-1.7,-1.8,-0.8,-0.65,-1.15,-0.75,-1.65,3.46,15.510000000000002,7.260000000000001,1.4600000000000002,1.6275000000000002,1.5275,1.4875,53.927499999999995,0
2.0371548787463363,4.183300132670378,2.3130067012440754,1.6278820596099706,1.3601470508735443,1.6278820596099706,1.4832396974191326,7.365459931328117,-0.95,-0.4,-1.05,-0.65,-0.85,-0.95,-0.8,-0.75,3.2475,17.340000000000003,4.2475000000000005,2.2275,1.1275000000000002,1.7474999999999998,1.56,53.6875,0
1.70293863659264,3.8535697735995385,2.4186773244895647,1.5652475842498528,1.1832159566199232,1.5329709716755893,1.3416407864998738,8.333666660000267,-0.7,0.25,-0.25,-0.85,-0.7,-1.15,-0.8,-0.65,2.41,14.7875,5.7875,1.7274999999999998,0.9099999999999998,1.0275000000000003,1.1600000000000001,69.0275,0
1.8708286933869707,4.455333881989093,2.6645825188948455,1.7888543819998317,1.3038404810405297,1.5968719422671311,1.5329709716755893,9.754486147409304,-0.8,-0.55,0.1,-1.1,-0.7,-1.35,-1.05,-0.65,2.8600000000000003,19.547500000000003,7.090000000000001,1.9899999999999998,1.21,0.7275,1.2474999999999998,94.7275,0
1.5968719422671311,4.538722287164087,2.4083189157584592,2.085665361461421,1.5968719422671311,1.4142135623730951,1.3416407864998738,8.862843787408192,-0.45,-2.1,-0.8,-1.15,-0.85,-1.1,-0.7,2.45,2.3475000000000006,16.190000000000005,5.160000000000002,3.0275000000000007,1.8275,0.79,1.3099999999999998,72.54750000000001,0
1.378404875209022,3.24037034920393,2.1563858652847827,1.6583123951777,1.61245154965971,1.161895003862225,1.3601470508735443,6.41482657598785,-0.5,-1.6,-1.15,-0.75,-0.9,-0.75,-0.75,3.35,1.65,7.940000000000002,3.3274999999999997,2.1875,1.7900000000000003,0.7875,1.2875,29.927500000000002,0
1.8027756377319946,5.347896782848375,1.857417562100671,1.7320508075688772,1.449137674618944,1.396424004376894,1.1832159566199232,5.310367218940701,-1.05,-1.2,-0.95,-0.5,-0.7,-1.05,-0.6,1.0,2.1475,27.160000000000004,2.5475,2.75,1.6099999999999999,0.8474999999999999,1.0399999999999998,27.2,0
2.449489742783178,5.220153254455275,2.179449471770337,1.9874606914351791,1.161895003862225,1.466287829861518,1.396424004376894,8.896628574915331,-0.9,-1.45,-1.05,-0.65,-0.65,-1.05,-0.55,-2.05,5.19,25.147499999999994,3.6474999999999995,3.5275,0.9275,1.0474999999999999,1.6475000000000002,74.9475,0
2.345207879911715,3.605551275463989,2.6362852652928135,1.224744871391589,1.396424004376894,1.0954451150103321,1.4142135623730951,8.955445270895245,-0.6,-0.5,-0.85,-0.4,-0.75,-0.7,-0.5,-0.1,5.140000000000001,12.75,6.227499999999999,1.3400000000000003,1.3875,0.7100000000000001,1.75,80.18999999999998,0
1.5491933384829668,3.892300091205713,2.3664319132398464,1.396424004376894,1.2649110640673518,1.2649110640673518,1.0723805294763609,6.700746227100382,-0.4,0.25,-0.8,-0.55,-0.7,-0.8,-0.65,1.0,2.2399999999999993,15.0875,4.96,1.6475000000000002,1.1099999999999997,0.96,0.7275000000000001,43.9,0
1.70293863659264,3.598610843089316,1.8973665961010275,1.2649110640673518,1.449137674618944,1.5,1.3228756555322954,7.635443667528429,-0.3,0.55,-1.0,-0.5,-1.1,-0.95,-0.95,-1.0,2.8100000000000005,12.647499999999997,2.6,1.35,0.89,1.3475,0.8474999999999999,57.3,0
2.247220505424423,3.271085446759225,2.355843797877949,1.161895003862225,1.5,1.3601470508735443,1.4832396974191326,8.763560920082657,-0.65,-0.2,-1.15,-0.55,-1.05,-0.95,-1.0,-1.1,4.6274999999999995,10.66,4.2275,1.0475,1.1475,0.9474999999999998,1.2,75.59,1
44.162767123449136,16.14930339054908,8.488227141164401,15.948354147058561,9.388823142439099,6.689544080129826,14.305593311708536,43.97954069791998,-3.75,-6.1,-2.35,1.35,-1.25,-0.35,-3.95,-9.5,1936.2875,223.59,66.5275,252.5275,86.5875,44.62749999999999,189.04749999999996,1843.95,1
35.09558376776201,16.068602926203635,9.284395510748128,18.922209173349714,10.079682534683322,7.546522377890362,18.062391868188442,30.468836538338643,8.8,-1.3,-0.4,-1.65,-2.6,-2.95,-6.85,-5.85,1154.26,256.51000000000005,86.03999999999999,355.3275,94.83999999999996,48.24750000000002,279.32750000000004,894.1274999999999,1
26.83654225119175,14.943225890014512,9.497368056467012,21.28732016952815,6.928203230275509,7.58617163001207,18.792285651298513,37.61781492856809,8.7,3.3,-0.9,1.85,0.4,-1.35,-6.65,-5.0,644.51,212.41,89.39,449.72749999999996,47.84,55.727500000000006,308.9275,1390.1,1
36.27051143835719,16.57709262808168,7.965550828411052,26.783390375380037,8.517628778010932,6.2048368229954285,14.390969390558789,43.01220756947962,-3.55,3.3,-2.15,-4.25,-1.45,0.9,-1.3,-7.95,1302.9475000000002,263.91,58.8275,699.2875,70.4475,37.69,205.41,1786.8474999999999,1
34.0271950063475,16.93517050401324,7.677890335241837,29.14103635768639,10.545141061171254,5.366563145999495,12.09958676980334,40.72407150568322,-5.85,0.3,-1.25,-9.7,-2.1,-1.2,-2.1,-14.45,1123.6274999999998,286.7099999999999,57.3875,755.1099999999999,106.78999999999999,27.359999999999996,141.99000000000007,1449.6475,1
21.820861577857094,14.597945060863875,7.52994023880668,28.21169970065611,10.404326023342406,5.191338940966964,11.151233115669315,43.5137909173632,-0.65,-1.9,-2.1,3.5,2.65,-1.55,-4.95,-13.95,475.7275000000001,209.49,52.29,783.65,101.22749999999999,24.547500000000003,99.8475,1698.8475000000003,1
25.1863058029557,14.33527118683145,7.0710678118654755,25.444056280396804,10.72147377928986,5.639148871948674,16.740669042783207,46.467730738653465,1.55,-0.3,-2.7,0.4,1.15,-0.1,3.05,6.25,631.9474999999999,205.40999999999994,42.709999999999994,647.24,113.62750000000001,31.79,270.94750000000005,2120.1875,1
27.730849247724095,13.009611831257688,8.645808232895291,21.947665023869853,11.077003204838391,6.767569726275452,20.535335400231475,47.230816211452456,-3.8,-2.35,-1.35,-2.8,-1.3,0.8,2.1,-4.35,754.5600000000001,163.72750000000002,72.92750000000001,473.85999999999996,121.00999999999999,45.160000000000004,417.2900000000001,2211.8275000000003,1
22.098642492243727,12.878276282173792,10.173494974687902,23.633662433063563,14.827339613025663,6.822756041366275,17.334935823359714,43.83092515564781,-9.35,-0.95,1.8,0.05,-1.95,0.15,-2.3,-8.55,400.92749999999995,164.94750000000002,100.25999999999999,558.5475000000001,216.04749999999999,46.527499999999996,295.21000000000004,1848.0475000000001,1
18.696256309753565,17.404022523543226,8.8656641037206,24.343376922686794,14.129755836531642,6.2048368229954285,16.283427157696256,46.455893059976795,-8.05,-3.3,0.9,0.5,0.25,-1.0,-1.35,3.85,284.7475,292.00999999999993,77.79,592.35,199.5875,37.5,263.3275,2143.3275,1
23.02932912613826,16.46055892125173,12.539936203984453,24.445858544956035,11.510864433221338,5.740209055426466,16.14465855941215,45.2990066116245,-3.55,-2.05,-0.95,5.1,1.9,0.15,1.65,-0.8,517.7475000000002,266.74749999999995,156.3475,571.5899999999999,128.88999999999996,32.92750000000001,257.92749999999995,2051.3600000000006,1
23.891421054428722,13.996428115772966,13.080519867344723,31.006450941699214,12.755391017134675,4.8270073544588685,15.759124341155507,42.59988262894629,-0.9,0.5,-1.6,2.9,-2.0,0.3,-2.35,8.85,569.99,195.65,168.54000000000002,952.99,158.7,23.209999999999997,242.82750000000001,1736.4275000000002,1
29.129023327259016,15.197039185315013,12.120231020900551,33.15493930020081,10.702803371079934,5.084289527554465,17.522842235208305,38.797551469132685,4.4,2.85,0.4,-1.55,-3.65,0.45,-4.35,5.25,829.1399999999998,222.82750000000004,146.74,1096.8475,101.22749999999999,25.647499999999997,288.1275,1477.6875,1
32.063998502993975,17.72004514666935,11.779218989389747,31.053180191407126,11.8911731969558,6.148170459575759,16.39207125411551,36.24982758579687,1.6,1.6,-1.75,-7.3,0.7,0.0,4.6,1.65,1025.54,311.44000000000005,135.6875,911.01,140.90999999999997,37.8,247.54000000000005,1311.3275,1
31.877107773447705,17.029386365926403,9.60728889958036,34.50507209092599,12.56383699353028,8.00312438988674,20.6627684495568,45.63715591489023,-6.75,-0.2,-3.7,-10.8,-0.55,-1.15,-0.25,-13.95,970.5875,289.96000000000004,78.61,1073.9600000000003,157.54749999999999,62.7275,426.8875,1888.1474999999998,1
31.909246308867907,15.19374871452072,9.992497185388645,29.75147055189037,8.303613671167511,8.170067319184096,20.682117879946436,54.923583277131506,-7.4,-2.65,-1.75,1.35,-3.45,-2.65,-0.65,-9.9,963.4399999999999,223.82750000000001,96.7875,883.3274999999996,57.047500000000014,59.727499999999985,427.3275,2918.5899999999997,1
32.264531609803356,16.834488409215172,12.134661099511597,28.619049599873158,8.905054744357274,7.88986691902975,16.323296235748465,52.83512089510159,-2.6,0.2,3.25,3.45,0.0,-2.25,0.25,-14.35,1034.24,283.36,136.6875,807.1474999999999,79.3,57.1875,266.3875,2585.6274999999996,1
27.0138853184802,16.2234398325386,9.984988733093292,28.36018335624789,11.006816070054047,6.946221994724902,13.583077707206124,46.55426940679018,3.25,4.8,2.9,3.3,0.15,-1.25,-0.1,-11.3,719.1875,240.16000000000003,91.28999999999999,793.41,121.12749999999998,46.6875,184.48999999999998,2039.61,1
19.56016359849784,18.40108692441835,8.517628778010932,24.074883177286655,9.388823142439099,6.3992187023104625,16.87601848778319,36.47259244967377,1.6,2.0,-2.45,2.9,-1.05,-2.15,-2.4,1.15,380.0400000000001,334.6,66.54749999999999,571.1899999999999,87.04750000000001,36.3275,279.0400000000001,1328.9274999999998,1
20.647033685253678,20.610676844781203,9.881801455200362,29.924070578716393,8.526429498916883,5.263078946776307,16.743655514850992,29.744747435471695,-1.0,-1.4,-4.55,-2.35,-0.4,-2.2,-1.85,0.15,425.3,422.84000000000003,76.94749999999999,889.9275,72.54,22.86,276.9275,884.7275,1
24.841497539399672,13.48703080740902,9.241212041718338,30.755487315274326,7.6452599694189605,5.661271941887264,17.11139970896595,39.577771539084914,0.9,-4.0,-2.1,-4.4,-1.25,-2.05,2.4,3.8,616.29,165.9,80.99,926.5399999999997,56.8875,27.847499999999997,287.0400000000001,1551.9600000000003,1
28.141606208601527,9.497368056467012,7.671375365604267,25.082862675540046,9.833615815151617,4.527692569068709,17.854971296532515,45.85575209284,-2.55,-3.7,2.35,3.55,-3.5,-0.2,3.5,8.65,785.4475,76.50999999999999,53.327499999999986,616.5474999999999,84.45,20.459999999999997,306.55,2027.9275000000002,1
27.434467372267317,11.935241933031772,8.72639673633969,35.302266216207705,11.55854662143991,5.70087712549569,15.943650773897426,48.893251068015516,-8.15,-2.15,-0.25,-0.75,-4.7,-1.9,1.2,-20.45,686.2275000000001,137.8275,76.0875,1245.6875,111.50999999999999,28.889999999999997,252.75999999999993,1972.3475000000003,1
23.935329536064465,13.919410907075054,11.284945724282416,33.72239611889997,11.131037687475503,6.156297588648554,11.07925990308017,51.19277292743576,-2.0,2.25,-2.95,-9.5,-6.3,-3.1,-0.35,-8.0,568.9,188.6875,118.64750000000001,1046.95,84.21000000000001,28.29,122.62750000000001,2556.7,1
22.140460699813815,13.200378782444085,13.171939872319491,29.87473849257931,9.428679653058534,4.979959839195493,12.37739875741264,48.10873101631345,0.7,1.75,-0.2,-2.4,-4.0,-1.6,-0.8,10.75,489.7099999999999,171.1875,173.45999999999998,886.74,72.9,22.24,152.56,2198.8875,1
32.67261850540908,18.603763060198332,11.271645842555557,33.13231051405863,10.464224768228174,4.711687595755898,13.606983501129116,36.90392933008625,-3.3,-4.0,-0.65,0.45,-1.6,0.5,0.65,5.5,1056.6100000000001,330.1,126.62750000000001,1097.5475000000001,106.94000000000001,21.95,184.72750000000002,1331.65,1
38.2367624152464,22.822138374832452,10.637198879404297,35.377252578457814,10.057335631269348,5.621387729022079,14.954932296737422,46.22553406938637,-4.45,-5.85,-0.05,0.75,0.55,0.6,2.05,5.3,1442.2475,486.62750000000005,113.1475,1250.9875,100.8475,31.24,219.4475,2108.71,1
33.831937573836946,22.44994432064365,8.927485648266257,30.773365106858236,8.766413177577247,5.380520420925842,16.671832532748162,51.32153544078743,-3.3,-2.1,-1.8,4.1,1.65,-0.35,2.75,4.8,1133.71,499.59,76.46000000000001,930.1899999999999,74.1275,28.827499999999997,270.3875,2610.8599999999997,1
28.209041103873062,17.054324964653397,9.375499986667378,22.018174311236617,8.80056816347672,5.9833101206606365,12.326800071389167,52.56947783647846,1.75,-0.25,-2.1,2.2,-2.55,-0.7,-1.05,1.75,792.6875,290.7875,83.49,479.96000000000004,70.94750000000002,35.31000000000001,150.8475,2760.4875,1
24.21053489702365,13.896042602122375,10.52853266129711,24.940930215210496,10.423531071570709,6.837397165588672,11.670475568716126,56.16805141715351,0.15,0.8,-1.85,-0.55,-3.15,-1.55,0.3,13.35,586.1274999999998,192.45999999999998,107.42750000000001,621.7474999999998,98.72750000000002,44.3475,136.10999999999999,2976.627500000001,1
21.56501796892365,13.714955340794953,9.222255689363639,30.5081956201936,12.706297651164952,6.340346993658944,11.708970919769166,48.52885739433806,-9.05,-1.9,0.05,-4.65,-1.45,-2.1,-6.0,6.45,383.1475,184.48999999999995,85.04750000000001,909.1274999999998,159.3475,35.79,101.1,2313.4474999999993,1
24.399795081106728,16.42254547870092,7.7168646482881895,25.48627081391077,14.998333240730451,6.078651166171653,13.257073583562851,49.53332211754023,-1.55,-1.2,1.45,-3.35,-3.55,-1.65,-3.25,7.15,592.9475,268.26,57.44749999999999,638.3275,212.3475,34.227500000000006,165.1875,2402.4275000000002,1
25.841826560829634,16.472704695950814,8.018728078691781,19.176808910765107,11.681181447096865,5.621387729022079,17.159545448525144,43.94542069431126,9.1,1.15,-0.2,5.35,-1.25,-0.9,1.15,6.1,584.99,270.0275,64.26,339.1275,134.8875,30.79,293.1275,1893.9900000000002,1
28.35048500466967,14.212670403551895,7.44983221287567,22.178818724179155,9.87674035297071,5.60357029044876,19.142883795290615,44.744273376600944,7.25,1.2,-1.5,-5.1,1.25,-1.4,0.45,9.95,751.1875,200.56,53.25,465.89,95.9875,29.440000000000005,366.2474999999999,1903.0475,1
30.55977748610091,15.370426148939398,8.538149682454625,21.691011963483863,9.071934744033381,5.375872022286245,21.41494805036893,44.49325791622816,-0.6,-0.65,-0.8,-3.5,-0.5,-1.0,0.3,-7.15,933.5399999999997,235.82749999999996,72.25999999999999,458.25,82.05,27.9,458.50999999999993,1928.5275000000001,1
30.374331268358816,18.494593804677084,10.774970997640782,19.473058311420935,8.811923740024081,4.183300132670378,18.20988742414406,43.39124335623491,0.4,-2.65,-3.4,-2.5,-2.45,0.0,-2.0,-13.9,922.4399999999999,335.02750000000003,104.53999999999999,372.95,71.64750000000001,17.5,327.6,1689.5900000000001,1
28.259511673063283,15.501612819316577,10.719141756689293,29.970819141291418,9.944847912361455,4.533210782657255,12.920913280414817,43.70011441632619,0.9,-1.6,-2.6,-11.65,-0.3,0.55,-2.55,-13.8,797.7899999999997,237.74,108.14000000000001,762.5275,98.81000000000002,20.247499999999995,160.44750000000002,1719.2600000000002,1
29.290783533391522,11.157956802210698,10.821275340735028,32.52844908691467,11.23832727766904,5.639148871948674,18.721645226849056,53.403651560544056,1.45,2.5,-0.4,-17.3,-1.8,-0.9,-3.1,-14.95,855.8475000000001,118.25,116.94000000000001,758.8100000000002,123.05999999999999,30.990000000000002,340.89,2628.4474999999998,1
31.182527158650885,9.871676655968834,12.188108959145385,38.79690709322072,14.75466028073842,6.053924347066125,18.985520798756088,49.463622997107684,0.15,0.95,2.05,-11.8,-0.8,-2.25,-5.35,-8.35,972.3275,96.54749999999999,144.34749999999997,1365.9599999999998,217.06,31.5875,331.8275,2376.9275000000002,1
24.102904389305454,10.339245620450265,12.30853362509117,35.49929576766277,18.898412631752965,6.902897942168926,19.83053201505194,52.92636394085655,-2.25,-1.8,0.0,-2.8,-0.45,-1.75,-3.05,-28.2,575.8875,103.65999999999997,151.5,1252.3600000000001,356.94749999999993,44.5875,383.9475000000001,2005.9599999999998,1
34.79439610052171,12.381437719424994,7.602631123499285,25.8408591188451,15.927962832703999,6.2008063991709985,13.397761006974262,58.632328966194066,-8.45,-2.8,1.0,-0.95,-4.1,0.45,-0.1,-20.55,1139.2475,145.45999999999998,56.8,666.8475000000001,236.88999999999993,38.24750000000002,179.49,3015.4474999999993,1
34.836762191684805,13.36413109783049,7.566372975210778,29.126448461836194,12.485992151206888,6.44980619863884,20.498780451529306,48.054136138318,-7.8,-2.7,1.65,-2.15,-3.3,0.8,0.8,3.1,1152.76,171.31,54.527499999999996,843.7275,145.01,40.96000000000001,419.56000000000006,2299.5900000000006,1
26.163906436157426,12.645157175772866,10.449880382090505,29.05770121671706,12.967266481413883,5.9455865984779,22.098642492243727,38.599222790102914,0.45,1.1,-1.1,-4.75,-4.45,-1.05,5.25,14.8,684.3475000000001,158.69,107.99000000000001,821.7875,148.34749999999994,34.24750000000001,460.7875,1270.8600000000001,1
23.490423580684958,13.053735097664577,12.134661099511597,19.54993606127652,10.807404868885037,4.8218253804964775,15.129441496631658,41.24318125460256,-1.0,-2.7,-4.05,0.1,0.6,-0.35,0.2,12.8,550.8,163.10999999999996,130.84750000000003,382.19,116.43999999999998,23.1275,228.85999999999996,1537.1600000000003,1
25.170419146291543,13.86903024728117,11.236102527122116,24.52753554680943,11.958260743101398,5.643580423808985,14.551632210855248,45.68697845119548,-0.05,-4.95,-3.65,-5.6,0.8,-1.65,1.05,3.4,633.5474999999999,167.8475,112.92750000000001,570.2399999999999,142.35999999999999,29.127499999999998,210.64749999999998,2075.7400000000002,1
32.05152102475014,14.969969939849578,11.222744762311937,34.859718874368454,11.560709320798617,4.242640687119285,14.599657530229948,39.83089253330887,-0.7,-1.2,0.25,-12.6,-1.05,-1.3,0.65,-1.3,1026.8100000000002,222.66,125.8875,1056.44,132.54749999999999,16.310000000000002,212.72749999999996,1584.81,1
30.017494898808593,14.291605927956452,10.35132841716463,32.11697370550345,10.244510725261602,5.394441583704471,13.065221008463652,32.349652239243625,-10.35,-4.45,0.05,2.5,1.45,0.3,1.0,4.3,793.9274999999998,184.44749999999996,107.14750000000001,1025.25,102.8475,29.01,169.7,1028.01,1
22.277791632026727,15.293789589241772,10.094552986635911,27.785787734019706,11.403946685248927,5.661271941887264,13.224976370489287,39.957477397853836,-11.4,-4.3,0.9,4.55,0.65,0.75,1.1,9.0,366.34000000000003,215.41000000000003,101.09,751.3475000000001,129.6275,31.4875,173.68999999999997,1515.6,1
27.627884464793897,14.324803663575986,9.260129588726068,29.538957327569975,15.508062419270823,6.833739825307955,13.924798023669858,45.2852072977479,-6.1,-2.3,1.75,-5.85,-4.0,-0.2,-4.7,-3.05,726.0899999999999,199.91,82.6875,838.3274999999998,224.5,46.66000000000001,171.81,2041.4474999999998,1
28.472794032198525,16.625281952496323,9.030503861911582,36.37925232876564,15.048255712872505,8.182297965730655,19.523063284228733,52.7958331689159,-11.5,-3.2,0.75,-1.55,-2.75,-2.35,0.85,-5.6,678.45,266.16,80.9875,1321.0475000000001,218.8875,61.427499999999995,380.4275,2756.0400000000004,1
27.01943744788185,15.121177202850312,11.262770529492288,33.131555955010626,18.816216410320116,9.937303457175895,18.79893614011176,53.506541656137706,-1.55,-0.35,-1.35,11.2,-5.05,-1.75,-3.2,1.05,727.6475,228.5275,125.0275,972.2599999999999,328.5475,95.6875,343.15999999999997,2861.8475000000003,1
21.890637268019404,14.044571905188139,14.021412197064887,31.320121327989774,18.1190507477627,6.830080526611674,19.072231122760652,42.74692971430814,-0.4,0.75,0.6,3.35,-3.4,-1.25,2.85,-1.5,479.0400000000001,196.6875,196.24000000000004,969.7274999999996,316.74,45.0875,355.6275,1825.05,1
23.187280996270346,9.841239759298622,12.05197079319395,35.4471437495322,10.488088481701515,7.200694410957877,19.733220720399395,52.86492220745246,3.05,-0.25,-2.05,-4.7,1.4,-1.65,5.6,3.6,528.3475000000001,96.7875,141.04749999999999,1234.4100000000003,108.04000000000003,49.1275,358.03999999999996,2781.7400000000002,1
25.28932581149604,10.99317970379817,9.795407086997457,33.07113545072198,19.135046380921054,9.08845421400141,17.482848738120456,52.044692332648104,3.75,-2.55,-3.35,-1.4,-0.55,-3.8,0.65,-9.35,625.4875,114.3475,84.72749999999999,1091.74,365.8475,68.16,305.2275,2621.2275000000004,1
18.44180034595321,14.544758506073588,10.375451797391765,30.317486703221295,20.474374227311564,8.267405880927825,15.989058759038945,45.46977017755863,0.2,-2.25,-2.25,-4.45,-1.3,-2.15,-4.65,3.3,340.06000000000006,206.4875,102.5875,899.3475000000001,417.5099999999999,63.7275,234.02750000000006,2056.61,1
19.121976885249076,16.727223320085137,10.4546640309481,28.580587817607952,18.361644806498138,5.718391382198319,23.242202993692317,52.15505728114964,-6.15,-2.6,0.2,-8.15,-1.35,-0.6,-8.8,5.45,327.8275,273.0400000000001,109.25999999999999,750.4274999999998,335.32750000000004,32.34,462.75999999999993,2690.4475,1
20.570610102765546,13.896042602122375,9.340770846134703,36.2560339805666,19.064364662899205,9.833615815151617,22.621892051727237,52.91786087891309,-4.35,-6.0,0.15,-4.8,-2.95,-3.5,-6.05,8.6,404.22749999999996,157.1,87.22749999999998,1291.4600000000003,354.7474999999999,84.45,475.14750000000015,2726.3399999999997,1
21.1730961363708,12.10784869413225,10.986355173577815,36.236031791574526,18.074844397670482,11.242775458044157,17.24818831066034,51.70831654579368,1.2,-3.6,-0.8,-4.85,-0.4,-2.6,-2.3,14.35,446.86,133.64,120.05999999999999,1289.5274999999997,326.54,119.64000000000001,292.21,2467.8275,1
25.16545250934304,16.264993083306244,12.078907235342111,39.08964057138413,15.751190431202335,7.912016177940993,17.35511451993331,56.87354393740555,6.1,1.55,-1.6,-6.3,-4.7,-1.7,1.0,9.4,596.0899999999999,262.14750000000004,143.34000000000003,1488.31,226.00999999999993,59.71,300.2,3146.2400000000002,1
30.83342342329181,18.709623192357455,11.41052146047673,35.4443225354922,10.742439201596628,8.028075734570521,21.83689538373072,46.59506411627738,1.5,0.35,-3.5,-3.7,-2.6,-2.65,-0.95,2.1,948.45,349.92749999999995,117.95,1242.61,108.63999999999999,57.427499999999995,475.94750000000005,2166.69,1
33.07793826706858,19.913563217063892,12.231107881136523,36.76887270504768,10.997727037892876,6.103277807866851,19.497435728833675,45.682600626496736,3.75,0.45,-0.9,2.85,-0.55,-0.65,3.45,1.6,1080.0875,396.34749999999997,148.79000000000002,1343.8275,120.64749999999997,36.8275,368.2475,2084.34,1
28.584086481817117,17.714400921284355,10.51427600931229,39.131189606246316,13.685759021698432,5.13322510708424,16.445364088398893,45.031655532525114,7.55,4.3,-0.25,1.75,-2.7,0.05,4.55,18.25,760.0475,295.30999999999995,110.4875,1528.1875,180.01,26.347500000000004,249.74749999999995,1694.7875,1
22.073740054644116,12.823805987303457,10.735455276791944,34.49782601846093,12.595634164265013,5.995831885568507,17.03819239238717,37.97367509209505,2.35,1.55,-2.05,-3.0,-3.05,-0.45,3.8,3.4,481.72749999999996,162.04749999999999,111.04750000000001,1181.1,149.34750000000003,35.7475,275.86,1430.44,1
21.27557284775195,9.526279441628825,10.134100848126586,27.855879092213193,15.953056133543816,6.767569726275452,21.155377566945006,46.15408974294694,1.25,-1.65,-2.3,-3.65,0.6,0.9,2.65,-8.5,451.0875,88.0275,97.41,762.6274999999998,254.14000000000001,44.99,440.52750000000003,2057.95,1
36.70217977177922,15.658863304850707,9.886859966642595,26.30874379365157,17.67766952966369,7.37563556583431,26.086394921491163,45.47911608639728,-0.45,2.2,1.75,5.55,-0.9,-0.5,-6.3,-8.15,1346.8475,240.35999999999996,94.6875,661.3475000000001,311.69,54.15,640.8100000000001,2001.9275000000002,1
37.96709101313926,17.61249556422939,10.52140675005011,23.869436524560022,17.314733610425545,6.870225614927067,25.65540878645281,35.53871128783372,0.4,5.1,2.2,2.35,-4.5,-1.2,1.2,-1.9,1441.3399999999997,284.19,105.85999999999999,564.2275,279.55,45.760000000000005,656.76,1259.3899999999999,1
25.202182445177243,15.831929762350514,8.766413177577247,28.30900916669462,19.3481265242917,5.70087712549569,25.921033929995925,40.65648779715237,1.25,2.65,-0.35,-4.1,-0.15,-1.2,7.5,7.05,633.5875,243.6275,76.72749999999998,784.5899999999999,374.3275,31.06000000000001,615.65,1603.2475000000002,1
19.759807691371897,12.50799744163709,6.224949798994366,19.697715603592208,14.044571905188139,5.70087712549569,18.179658962697843,44.42634353623985,1.15,2.15,-0.55,-0.8,3.55,-0.4,1.0,3.3,389.1275,151.82750000000001,38.4475,387.36,184.64749999999998,32.33999999999999,329.5,1962.81,1
19.403607911932255,8.461678320522472,7.5398938984577235,19.33520105920805,9.135097153287424,6.053924347066125,17.673426379737464,48.685213360937425,0.1,0.0,-1.15,-0.35,0.85,0.25,-0.35,-9.45,376.49000000000007,71.6,55.527499999999996,373.7275,82.72749999999999,36.5875,312.2275000000001,2280.9474999999998,1
25.102788689705374,10.825894882179487,8.893818077743664,19.097120201747696,8.246211251235321,6.442049363362563,18.852055590836773,48.71652696980769,-6.25,-4.8,0.6,-1.1,-0.8,-1.4,1.5,-8.4,591.0875,94.16,78.73999999999998,363.49000000000007,67.36000000000001,39.54,353.15,2302.74,1
28.762823227214675,16.57256769483836,9.57601169589929,31.34246320888006,9.586448768965493,6.6332495807108,20.65187642806338,33.7860918130523,-2.2,0.25,1.0,-1.45,-1.5,-2.7,0.3,-7.3,822.4600000000003,274.5875,90.7,980.2474999999998,89.65,36.71,426.41,1088.21,1
25.73713270743266,16.852299546352718,9.484197383015603,32.11697370550345,11.821590417536889,6.689544080129826,23.569047498785352,31.52300747073477,-0.5,4.3,0.05,-1.2,0.95,-2.75,-5.9,-12.4,662.15,265.51000000000005,89.94750000000002,1030.06,138.8475,37.1875,520.6900000000002,839.9399999999999,1
19.89095271725314,12.441864811996632,9.91463564635635,27.181795378524946,11.271645842555557,6.496152707564686,22.272179956169534,32.22809333485306,-3.25,-0.7,-0.7,-2.15,2.95,-2.3,-7.55,-4.45,385.0875,154.31,97.81,734.2274999999998,118.34750000000004,36.910000000000004,439.0475,1018.8475000000001,1
20.03122562401013,12.142899159591172,9.292470069900682,21.6817895940349,11.20267825120404,7.848566748139434,20.399754900488386,37.961164365704064,-0.75,1.35,2.35,3.5,-1.0,-2.5,-2.25,-4.45,400.6875,145.6275,80.82749999999997,457.85,124.5,55.35,411.0875,1421.2475000000002,1
20.36295656332842,11.441153787970862,10.310189135025603,29.129023327259016,13.324788928909907,6.910137480542627,20.91291467012669,39.7831622674719,-1.55,1.5,-0.5,3.6,-4.45,-1.05,7.15,-4.0,412.24750000000006,128.65,106.05,835.54,157.7475,46.647499999999994,386.2275,1566.7,1
21.233228675827895,10.67239429556461,7.297259759663212,26.67770604830933,14.422205101855956,4.620606020859169,16.53481176185565,43.626826609323764,-9.35,-5.3,-3.05,-2.1,-2.5,0.05,4.5,-4.1,363.42750000000007,85.80999999999999,43.9475,707.29,201.75,21.347500000000004,253.15,1886.4900000000002,1
18.874586088176873,10.538026380684384,9.10768905925098,28.567464010653797,13.479614237803691,5.044799302251775,17.864769799804307,43.12597824977423,-4.65,-2.85,-2.95,-1.8,0.6,-0.25,-2.15,-10.55,334.6275000000001,102.92750000000001,74.24750000000003,812.8600000000001,181.34,25.3875,314.5275,1748.5474999999994,1
21.621748310439653,8.907861696277058,9.47100839404126,29.85967179993779,13.285330255586423,5.224940191045253,18.324846520503247,45.90533738030906,1.8,0.95,-1.7,-3.4,0.6,-1.2,-3.2,-10.9,464.26000000000005,78.44749999999999,86.81000000000003,880.0399999999997,176.14,25.859999999999996,325.56000000000006,1988.4900000000002,1
28.75760768909681,10.16366075781753,7.638717169787085,28.993102628038965,12.978828914813539,6.252999280345393,12.2494897852931,43.3739553188316,-2.5,1.5,0.05,-0.9,-1.25,-1.2,0.25,-9.6,820.75,101.05,58.347500000000004,839.79,166.8875,37.66000000000001,149.9875,1789.1399999999999,1
28.310775333784132,9.929753269845127,9.024965373894794,29.801006694405476,13.179529581893277,7.280109889280518,11.539064086831306,32.51691867320764,-1.2,-0.2,-0.65,6.7,0.2,-1.3,0.85,-5.25,800.0600000000001,98.56000000000002,81.0275,843.2099999999998,173.66,51.30999999999999,132.4275,1029.7875,1
37.43527747993863,12.10784869413225,9.31933474020544,27.14958563219704,13.56281681657612,6.340346993658944,14.889593681494468,28.28780656042458,-7.0,-3.3,0.15,7.9,0.65,-0.4,0.5,1.3,1352.4,135.70999999999998,86.82749999999997,674.6899999999998,183.52749999999997,40.03999999999999,221.45,798.5099999999999,1
30.860978597575286,13.694889557787606,8.420213774008355,22.37409216035368,14.410065926289164,6.44980619863884,19.09842925478428,38.472717606116674,-14.0,-5.85,1.3,-1.8,2.35,0.2,-0.35,-0.85,756.4,153.32750000000004,69.21000000000001,497.36,202.1275,41.559999999999995,364.62749999999994,1479.4274999999998,1
20.636133358747227,10.207840124139876,10.227414140436476,36.06799134967181,13.924798023669858,6.131883886702357,14.818906842274163,46.20876540224809,-10.35,-4.6,2.1,-6.7,2.2,-1.2,0.6,2.65,318.7275,83.03999999999998,100.19,1256.01,189.06,36.16000000000001,219.24,2128.2275,1
13.10915710486376,10.121758740456126,9.5524865872714,40.03623358908777,10.858176642512316,6.148170459575759,17.756688880531755,45.9526930658041,-3.85,0.25,-0.25,-8.9,-0.6,-2.6,6.9,4.45,157.0275,102.3875,91.1875,1523.6900000000003,117.54,31.040000000000003,267.69,2091.8475,1
19.947430912275394,10.651291001564083,9.044335243676011,28.839209420509434,11.151233115669315,7.3484692283495345,17.789041570584963,41.44152506846243,-5.8,-0.45,-1.3,-2.8,-2.85,-2.7,-1.85,-2.7,364.25999999999993,113.24750000000002,80.11,823.86,116.22750000000005,46.709999999999994,313.02750000000003,1710.1100000000001,1
30.643922725395324,14.84082207965583,10.353743284435827,25.665151470427755,13.072872675888801,6.135959582656978,21.202594180901542,34.515214036711406,-0.25,-2.45,-2.9,4.9,1.7,0.15,-1.25,5.3,938.9875,214.24750000000003,98.78999999999999,634.69,168.01,37.62750000000001,447.9875,1163.21,1
29.21044333795706,16.724233913695418,12.708265027138834,27.405291459862273,13.525901079040908,7.419568720619818,21.915747762739013,44.404391674698125,6.25,0.4,0.7,3.45,1.45,0.55,0.9,2.95,814.1875,279.5400000000001,161.00999999999996,739.1475000000002,180.84749999999997,54.7475,479.49000000000007,1963.0475,1
23.676993052328246,11.69829047339824,12.212698309546504,32.24282866002919,12.060265337047937,7.8230428862431785,18.540496217739157,50.73115413628987,-4.4,-1.15,3.85,7.1,-2.65,-1.7,-5.15,-7.85,541.24,135.52750000000003,134.32750000000001,989.1900000000002,138.42749999999998,58.31000000000002,317.22749999999996,2512.0275000000006,1
27.969626382917593,9.313968005098578,9.836157786453,34.24251743081983,9.764732459212592,7.123903424387503,19.530744993471192,56.84276559070644,-9.3,-3.35,-1.15,2.55,-2.85,-3.85,-5.35,-7.7,695.8100000000001,75.5275,95.4275,1166.0475000000001,87.2275,35.9275,352.8275,3171.8100000000004,1
24.853571171966415,11.077003204838391,9.805610638812864,23.720244518132606,10.069756700139283,6.284902544988268,22.552161758909055,44.733656233310505,1.4,-1.8,-2.35,-1.55,-2.5,-3.0,-6.4,9.0,615.74,119.46,90.62750000000003,560.2475,95.15,30.5,467.64,1920.1,1
16.88786546606764,11.441153787970862,9.899494936611665,24.168160873347396,10.768008172359455,5.509083408335728,23.421144293138198,30.644738536982167,-0.7,-4.8,0.7,-3.7,-0.85,-0.75,-7.65,3.2,284.71,107.86000000000001,97.51,570.4100000000001,115.22750000000003,29.7875,490.02749999999986,928.86,1
20.893778978442363,15.094701056993477,9.008329478876759,24.13296500639737,10.007497189607399,5.6964901474504455,24.841497539399672,38.294908277733214,-4.85,-3.65,1.25,-3.5,-0.85,-1.25,-6.7,-6.6,413.02749999999986,214.5275,79.5875,570.15,99.42749999999998,30.8875,572.21,1422.9400000000003,1
22.048809491670973,15.303594349041012,9.10494371207203,30.21671722738921,12.224974437601086,5.490901565316938,16.390546055577282,38.99358921669048,-3.95,-1.6,-1.3,-2.95,-4.05,-1.95,-3.55,-4.5,470.5475000000001,231.64000000000004,81.21000000000001,904.3475000000001,133.04749999999999,26.347500000000007,256.0475,1500.25,1
25.150546713739644,16.082599292402953,12.087183294713455,27.897132469126642,11.625403218813531,6.196773353931867,16.334013591276335,33.86443562205046,0.05,1.25,0.0,-6.45,-1.95,-2.9,0.3,-11.0,632.5474999999999,257.0875,146.1,736.6474999999999,131.34750000000003,29.99,266.71,1025.8,1
29.978325503603433,17.656443583009576,12.395563722558164,24.743686063317245,10.705138952858109,5.196152422706632,15.033296378372908,38.32362195826485,0.0,3.15,-0.65,-6.15,-1.7,-1.6,3.8,-13.8,898.7,301.8275,153.22750000000002,574.4275,111.71000000000001,24.44,211.56000000000003,1278.26,1
26.618602517788194,14.904697246170416,9.705668446840743,35.224281397922084,12.487994234463756,4.483302354291979,15.234828518890522,38.05850759028788,-0.15,-1.35,-0.1,-1.35,-4.45,-0.1,0.6,-3.45,708.5274999999999,220.32749999999996,94.19000000000003,1238.9275,136.14750000000004,20.090000000000003,231.74,1436.5475000000001,1
27.31208523712534,13.48332303254654,8.723531395025756,35.831550343238014,11.4564392373896,8.330666239863412,17.010291002801804,44.55894971832258,0.25,-2.0,0.9,-5.8,-3.55,-0.1,-2.15,-10.7,745.8875,177.8,75.28999999999999,1250.2600000000002,118.64750000000001,69.39,284.7275000000001,1871.0099999999998,1
21.748563170931547,12.399596767637245,11.29601699715435,33.9322855109997,11.730302638892145,9.276313923105448,17.435595774162696,45.13369029893301,-5.6,-4.65,-0.9,-8.9,-3.4,-2.35,-1.2,-15.45,441.64000000000004,132.1275,126.79,1072.19,126.03999999999999,80.5275,302.56000000000006,1798.3474999999999,1
27.55358415887124,14.861022845013057,10.31746092796091,27.23784132415783,13.94094688319269,6.652067347825035,17.478558292948534,31.064449134018133,0.2,-1.15,-1.25,-0.3,-4.45,-3.45,-3.0,0.7,759.1599999999999,219.5275,104.8875,741.8100000000001,174.54749999999996,32.347500000000004,296.5,964.5099999999999,1
33.62662635472075,18.522958726942086,8.73212459828649,23.79495744900587,11.899579824514813,4.811444689487764,15.53061492665374,22.91069619195366,6.05,5.7,0.15,5.7,-1.3,0.15,1.5,4.6,1094.1475,310.60999999999996,76.22749999999999,533.7099999999999,139.91000000000003,23.127500000000005,238.95,503.7400000000001,2
37.36442157989335,21.002380817421628,9.35681569766125,19.14549555378497,11.870130580579136,42.75102337956368,37.69549044647118,27.32306717775294,-0.1,-2.6,-0.25,1.35,1.8,6.55,0.25,0.45,1396.09,434.34,87.4875,364.7275000000001,137.66000000000003,1784.7475000000002,1420.8875,746.3475000000002,2
38.59727969689056,27.213048340823562,7.787810988975015,26.079685580926775,11.931051923447487,42.097505864362084,35.53026878592393,21.788758569500924,5.25,5.65,-2.35,-0.65,-0.45,3.3,2.7,2.45,1462.1875,708.6274999999999,55.1275,679.7275,142.14749999999998,1761.3100000000002,1255.11,468.74750000000006,2
37.87875393937873,27.225906780123964,9.602083107326242,26.4990565869806,14.508618128546908,46.09175631281585,32.43532025431536,33.235523164228965,3.4,-4.35,-3.0,3.9,0.6,4.65,5.25,-10.5,1423.2399999999998,722.3275,83.2,686.99,210.14000000000001,2102.8275,1024.4875,994.35,2
50.095908016523666,20.108455932766194,7.791020472312982,25.245791728523788,15.901257811883939,47.322827472584514,35.651086939951774,36.73826343201323,-10.1,-9.95,1.0,6.85,-0.55,-3.25,-1.7,-15.0,2407.5899999999997,305.3475,59.7,590.4275,252.54749999999996,2228.8875,1268.1100000000001,1124.7,2
54.98727125435486,23.6103790736193,9.810708435174291,28.520168302448706,14.756354563373707,41.76781057225767,37.403208418530085,34.767082132384935,-12.2,-4.05,-1.95,4.1,-4.05,-8.25,-7.7,-12.45,2874.7599999999998,541.0475,92.44749999999999,796.5899999999999,201.3475,1676.4875,1339.7099999999998,1053.7475,2
40.12978943378597,19.51153504981092,11.94361754243663,27.14498111990502,11.75159563633807,42.997092924987385,32.88084548791287,28.876461001999537,1.0,-0.7,-1.45,-8.15,-4.1,-8.95,-10.05,-6.55,1609.4,380.2099999999999,140.54749999999999,670.4274999999999,121.29,1768.6474999999998,980.1475,790.9475000000001,2
40.71731818280767,18.948614725092703,11.75159563633807,25.022989429722422,13.514806694880988,50.083929558292446,35.34826728426727,25.228951623085727,10.4,3.85,2.9,0.25,0.15,8.4,-0.2,-4.8,1549.7399999999998,344.2275,129.69,626.0875,182.6275,2437.8399999999997,1249.4599999999998,613.46,2
46.15300640261694,21.301408404140794,11.220516922138659,24.226019070412704,15.360664048145836,54.61272745432149,37.32224537725457,31.87946047222255,-4.1,2.15,0.5,4.3,1.95,1.55,-7.75,-12.3,2113.29,449.12750000000005,125.65,568.41,232.14749999999998,2980.1474999999996,1332.8875,865.01,2
40.01687144193059,17.891338686638292,8.438009243891594,26.1026818545528,15.647683534632211,56.90782020074218,33.2918909045431,30.01416332333787,-17.25,-5.0,-2.1,1.25,-3.05,-8.2,-12.95,-7.75,1303.7875,295.1,66.79,679.7875,235.54749999999999,3171.2599999999993,940.6475,840.7875,2
44.95052836174454,18.76166303929372,7.459892760623306,23.017384734152575,10.442700800080408,50.49059318328514,28.08736370683443,29.867206096319087,-8.75,-4.1,-1.55,2.9,-0.25,0.0,-1.5,1.05,1943.9875,335.19,53.2475,521.3899999999999,108.9875,2549.3,786.65,890.9474999999999,2
42.87365158229469,17.07629936490925,6.6932802122726045,23.261556267799453,10.024968827881711,35.234216324476414,22.4477170331417,24.548930730278254,-9.15,-1.8,-1.9,2.3,1.8,-8.25,-2.9,-4.15,1754.4275000000005,288.35999999999996,41.19,535.8100000000002,97.26,1173.3875,495.49000000000007,585.4275,2
45.45987241513112,18.322117781522966,5.458937625582473,14.808781178746615,10.526157893552615,38.36404566778639,25.671969149249147,26.016341018675167,-8.0,0.7,0.0,0.6,0.0,12.6,0.55,1.95,2002.6,335.21000000000004,29.8,218.94,110.8,1313.0400000000002,658.7475000000002,673.0474999999999,2
46.57413445250486,26.83561066940717,6.434283176858165,19.36362569355233,9.565563234854496,47.71896897461218,32.08036782831519,28.580587817607952,-0.05,4.55,1.8,3.15,-0.1,19.5,1.55,4.35,2169.1475,699.4475,38.160000000000004,365.02750000000003,91.48999999999998,1896.85,1026.7475000000002,797.9275,2
53.5144840206836,26.33343881835413,6.711929677819934,20.890189084831185,13.399626860476378,46.89989339007073,45.88627245702139,37.962481478428145,3.1,6.95,0.75,0.0,1.85,9.8,-2.35,2.05,2854.19,645.1474999999999,44.4875,436.4,176.12749999999997,2103.5599999999995,2100.0275,1436.9474999999998,2
50.96616524715196,19.611221277625727,6.6332495807108,19.39974226632921,14.702040674681866,44.22555822146285,48.8170052338322,36.03123644839294,-0.85,-1.6,-0.7,-2.55,3.25,-1.3,5.0,-0.35,2596.8275,382.0400000000001,43.51,369.84749999999997,205.5875,1954.2100000000003,2358.1,1298.1275000000003,2
47.2710270673274,17.622428890479316,6.284902544988268,15.64928113364956,9.87674035297071,36.442420336744924,32.568389582538465,24.914855006601986,-0.35,-2.65,0.4,-0.5,1.95,-2.95,2.0,-3.55,2234.4275000000002,303.52750000000003,39.33999999999998,244.65,93.74750000000003,1319.3474999999996,1056.7,608.1475,2
62.52599459424856,18.964440408301005,5.674504383644443,15.974980438172686,15.354152532784088,41.86824572393737,26.659894973536563,25.098804752417994,-2.1,-3.75,-1.1,-0.2,-0.55,-3.05,-4.15,-7.05,3905.09,345.5875,30.990000000000002,255.16,235.44750000000005,1743.6474999999998,693.5274999999999,580.2475000000002,2
63.722445025281324,28.947366028708036,8.285529554590944,28.696689704563486,19.859506539690255,55.673153314681215,39.5145542806698,22.370739817896055,-3.05,-0.05,-1.65,-0.9,-0.9,-2.1,0.9,-3.15,4051.2475,837.9474999999999,65.92749999999998,822.6899999999999,393.59,3095.0899999999992,1560.59,490.52750000000003,2
48.505669771687515,28.850476599182898,9.439279633531363,34.91776052383658,16.063934760823702,53.69962755922987,41.86824572393737,32.919599025504546,-14.2,-1.45,-0.6,-2.65,0.95,-6.15,8.65,-2.2,2151.1599999999994,830.2475000000002,88.74000000000001,1212.2275,257.1475,2845.8275000000003,1678.1274999999998,1078.8600000000001,2
52.805302764021725,22.988040368852673,7.677890335241837,29.02326652876964,17.046993869888027,49.08971379016179,39.75172952212268,31.393470658721377,-3.0,-2.15,0.35,-2.35,4.1,-7.9,11.0,-11.65,2779.4,523.8275000000001,58.8275,836.8275000000001,273.79,2347.39,1459.2,849.8275000000001,2
46.58808860642385,22.865913495856667,6.723094525588644,20.91889098398861,18.516209115258988,49.26966612430005,42.38218965556169,29.817779930772847,-1.65,1.55,1.1,8.7,1.85,-1.7,-0.95,-16.6,2167.7275000000004,520.4475000000001,43.989999999999995,361.90999999999997,339.42750000000007,2424.6099999999997,1795.3475000000003,613.5400000000002,2
47.75301037631031,26.28022069922549,6.708203932499369,25.411611519146124,20.868636754709208,41.264997273718556,39.92492955535426,27.057346507002492,-19.05,-7.45,0.2,-3.15,-10.3,5.2,-11.0,-11.1,1917.4475000000002,635.1475,44.96000000000001,635.8275000000001,329.40999999999997,1675.7600000000002,1473.0,608.8899999999998,2
59.33801479658719,26.79178978717174,4.790615826801393,26.473571727290597,19.51025371439336,50.60434763930862,40.61157470475628,37.13960150567046,-26.4,-12.4,-1.45,0.55,-5.15,-0.2,-6.5,-11.45,2824.04,564.0400000000001,20.8475,700.5475,354.1275000000001,2560.7599999999998,1607.05,1248.2475,2
52.54474283884164,19.48204301401678,9.787747442593725,23.620965263934497,14.310835055998654,51.00294109166647,43.617656975128774,34.69942362633708,-12.15,-7.45,-1.0,6.35,-2.1,2.2,3.4,-3.15,2613.3275000000003,324.0475,94.8,517.6274999999998,200.39000000000001,2596.46,1890.94,1194.1275,2
43.6520331714343,19.81918262693999,11.696153213770756,20.83026644092677,13.72406645276829,45.45327270945405,37.651029202400295,24.107052909885105,2.6,-0.5,0.5,2.6,-1.85,-2.5,-4.4,-3.55,1898.7400000000002,392.55,136.55,427.14,184.9275,2059.75,1398.2400000000002,568.5474999999999,2
46.720445203358246,21.67487024182613,8.986100377805714,21.05231578710523,13.375350462698165,42.103444039650725,29.27285431931775,24.970983160460463,11.2,3.2,-0.55,-2.1,-0.3,-12.9,-10.6,-1.05,2057.36,459.5600000000001,80.4475,438.7900000000001,178.80999999999997,1606.29,744.54,622.4475,2
43.28683402606386,18.05408541023333,8.634234187233979,25.26954688948735,11.956169955299229,52.128207335376494,33.534310787609755,31.522214389220817,3.75,-1.85,-3.65,-7.75,-1.65,-10.85,-5.55,-6.35,1859.6875,322.52750000000003,61.2275,578.4875,140.22750000000002,2599.6275,1093.7475,953.3275,2
40.23679907746142,20.370321548763044,10.101980003939822,29.826163011691598,11.59094474147815,57.1244255988627,39.36368885152915,33.157955304873674,-0.1,-3.85,-3.35,-14.2,-3.15,-4.2,-10.0,-3.75,1618.9899999999996,400.1275,90.8275,687.96,124.42750000000001,3245.559999999999,1449.5,1085.3875,2
47.59621833717465,20.441379601191304,10.276186062932103,27.14037582643247,13.427583550289308,43.55858124411308,38.309267808194924,30.579404833972816,6.2,1.85,-1.5,-12.5,-4.9,3.05,-12.3,5.5,2226.96,414.42750000000007,103.35,580.35,156.29,1888.0475000000001,1316.31,904.85,2
48.569023049676424,16.03901493234544,10.251829105091442,30.616988748079063,14.818906842274163,44.18766796290567,34.056570584837225,34.52028389222777,13.15,3.05,-1.7,-13.1,-5.6,-0.25,-5.75,3.65,2186.0275,247.94749999999993,102.21000000000002,765.79,188.24000000000007,1952.4875,1126.7875,1178.3274999999999,2
47.60777247467056,20.257097521609555,8.774964387392123,30.085710894044034,15.982803258502559,45.703391559051724,33.48955060910791,50.629043048432194,-12.2,-7.45,-1.7,-8.65,-2.15,-0.5,-8.85,-9.0,2117.66,354.84749999999997,74.11,830.3274999999998,250.82750000000001,2088.55,1043.2275,2482.3,2
53.571447619044235,27.617928959282953,9.478923989567592,20.62159062730128,17.5968747225182,40.14847444175183,32.09049703572695,54.79598525439614,-6.5,-5.05,-2.25,-3.95,-0.55,-0.5,-4.0,-10.5,2827.65,737.2475,84.7875,409.6474999999999,309.34749999999997,1611.65,1013.8,2892.35,2
47.75248684623661,24.742675683927153,10.800462953040485,26.52357441974969,19.685019685029527,34.584678688691035,31.102250722415572,35.0207081596018,5.5,0.5,-1.05,-3.7,-0.6,1.0,8.85,2.25,2250.05,611.95,115.54749999999999,689.81,387.14000000000004,1195.1,889.0274999999999,1221.3875,2
57.27390330682902,21.508137994721906,8.749285685128815,22.187834504520715,16.376812876747415,42.01190307520001,38.257025498593066,29.835381680146142,-5.1,-4.1,-0.65,-3.8,-0.8,-1.6,0.2,5.95,3254.2899999999995,445.78999999999996,76.12749999999997,477.8600000000001,267.55999999999995,1762.44,1463.56,854.7475000000001,2
53.154491813956795,19.54993606127652,6.8044103344816,17.916472867168917,11.430223094935636,45.74166590757272,38.761449921281326,30.107308082922327,-12.9,-2.1,-0.3,-4.3,-1.45,-8.5,-2.75,-0.55,2658.9900000000002,377.7900000000001,46.21,302.51,128.54749999999999,2020.05,1494.8875,906.1475000000003,2
49.39433165860229,19.395875850293535,7.807048097712733,21.777281740382566,12.26580612923586,50.51930324143436,38.38293891822251,38.00789391692204,0.1,0.5,-0.75,-1.65,-4.15,-22.5,-0.25,-10.7,2439.79,375.95,60.3875,471.5275,133.22750000000002,2045.95,1473.1875,1330.11,2
45.447222137332,19.617594144033056,7.996874389409903,24.289915602982237,12.097520407091695,45.880278987817846,37.99605242653505,47.843494855622744,0.55,0.05,-1.55,-6.7,-6.55,-23.0,-0.7,-12.1,2065.1475,384.8475000000001,61.5475,545.1099999999999,103.44749999999999,1576.0,1443.2099999999998,2142.59,2
45.29955849674476,23.27767170487633,8.757853618324527,29.88394217635953,11.638298844762494,33.368398223468866,30.328204694640267,43.27354850252057,-14.45,-4.75,-2.9,-8.15,-4.95,-4.85,2.0,-7.4,1843.2474999999995,519.2875,68.28999999999999,826.6274999999998,110.94749999999999,1089.9275,915.8,1817.8399999999997,2
45.16303798461747,23.22606294661237,8.891006692158093,27.367864366808018,11.131037687475503,37.613162589710534,28.135386970859315,28.781070167733514,-9.5,-6.75,-3.65,-4.2,-5.2,-3.75,0.7,-4.95,1949.45,493.8875,65.72749999999996,731.3600000000001,96.85999999999999,1400.6875,791.1099999999999,803.8475000000002,2
43.79954337661524,20.405881505095532,8.369587803470372,17.255433926737396,13.078608488673403,36.52875579594794,28.71759042816789,27.062889720057612,2.0,-1.6,0.55,1.45,-0.95,-0.85,-8.0,0.8,1914.4,413.84,69.7475,295.6475,170.1475,1333.6275,760.7,731.76,2
48.295962564173,22.988040368852673,7.835815209663893,27.675801704738383,18.04993074778959,56.84144614627604,28.358420266298335,29.614185789921695,16.0,7.15,1.9,0.35,3.1,8.75,-7.3,14.7,2076.5,477.3275,57.790000000000006,765.8274999999999,316.19000000000005,3154.3875,750.91,660.9100000000001,2
37.808729150819126,19.219781476385208,6.830080526611674,33.345164566995315,19.776248380317234,50.98676298805407,32.70703288285258,26.366645596283195,10.8,5.1,-0.05,-0.4,1.0,4.05,8.85,5.7,1312.8600000000001,343.39,46.64750000000001,1111.7399999999998,390.1,2583.2475,991.4275,662.7099999999998,2
29.763232351342488,11.70256382165891,7.231873892705818,24.7275150389197,16.47877422625846,26.502830037563914,22.706827167175955,24.21982658897458,-1.85,-3.05,-2.3,-4.75,0.35,1.6,1.6,-5.9,882.4275000000001,127.6475,47.010000000000005,588.8875,271.4275,699.8399999999999,513.0400000000001,551.7900000000001,2
24.232209969377536,13.490737563232042,6.87386354243376,16.715262486721528,14.042791745233567,25.88822125987029,20.65187642806338,24.020824298928627,-2.3,1.2,-2.15,-4.9,2.7,3.3,-4.5,-3.9,581.9100000000001,180.56,42.62749999999999,255.39000000000001,189.90999999999994,659.3100000000001,406.25,561.7900000000001,2
50.34431447542016,18.790955271087206,6.899275324264136,17.21336689901194,12.751470503436064,24.03851076918036,17.402586014727813,21.740515173288788,-8.95,0.8,-1.7,-1.4,-0.2,1.25,-3.75,2.15,2454.4474999999998,352.4599999999999,44.71,294.34000000000003,162.56000000000003,576.2875,288.7875,468.0274999999998,2
60.39081055922333,28.252433523503775,8.854377448471462,15.593267778115015,12.12435565298214,39.2096926792343,21.059439688652688,28.946502379389464,-11.95,-1.8,-0.7,-5.85,-5.3,0.6,-6.5,3.1,3504.247499999999,794.9599999999999,77.91,208.92749999999995,118.91,1537.04,401.25,828.29,2
53.65724554987891,28.187763302539633,8.555699854482976,19.96872554771586,18.536450577173614,39.75864685826217,27.763285108214408,29.539803655407056,-1.7,-0.95,-2.5,-9.15,-6.5,10.55,-1.7,0.5,2876.21,793.6475000000002,66.95,315.02750000000003,301.35,1469.4474999999998,767.91,872.35,2
51.051444641655344,19.29766825292631,6.248999919987197,20.427922067601493,17.301734017144064,31.56342820417326,28.83227358360766,28.997413677774784,-11.65,-7.8,-3.45,-3.3,-4.85,4.85,-1.6,-6.85,2470.5275000000006,311.56,27.147499999999997,406.40999999999997,275.82750000000004,972.7275,828.7399999999998,793.9274999999998,2
44.661504676846704,16.192590898309017,6.931810730249348,22.111083193728884,13.647344063956181,30.44667469527666,23.205602771744587,23.4040594769369,-13.15,-7.3,-0.85,-2.0,-2.65,9.5,0.0,-2.55,1821.7274999999997,208.91,47.3275,484.9,179.2275,836.75,538.5,541.2475,2
49.77147777593106,23.16246964380094,5.740209055426466,19.63415391607186,11.664047325006875,28.380451018262555,21.03924903602788,20.280532537386684,2.3,6.2,-1.55,-2.4,-0.35,11.85,1.15,3.0,2471.9099999999994,498.06000000000006,30.547499999999992,379.73999999999995,135.92749999999998,665.0275,441.32750000000004,402.3,2
54.6383564906559,20.890189084831185,12.159358535712318,26.124700955226263,16.886385048316292,55.25486403928617,35.22853956666384,31.68122472380132,-3.45,-7.8,-2.55,-1.6,-2.95,-11.1,4.35,-4.4,2973.4474999999998,375.56,141.3475,679.9399999999999,276.4475,2929.89,1222.1274999999996,984.3399999999999,2
52.591349098497176,22.246348014898985,14.096098751072937,30.954805765825764,18.796276226955168,63.141111805225606,53.867893962916355,31.482534840765283,9.95,0.6,-1.7,-1.9,-5.2,3.3,14.75,-6.45,2666.8474999999994,494.53999999999996,195.81,954.5899999999999,326.25999999999993,3975.909999999999,2684.1875,949.5475000000002,2
32.09672880528482,20.660348496576724,10.583005244258363,25.96247291765559,15.043270920913443,64.48488194918248,59.481089431852205,39.01281840626232,-6.6,-4.15,0.1,0.05,-0.6,13.0,15.0,-9.9,986.6400000000001,409.62749999999994,111.99000000000004,674.0475,225.94000000000005,3989.3,3313.0,1423.9900000000002,2
37.18736344512743,24.61605167365392,8.988882021697693,19.512816301087856,12.733813254481158,58.3172358741393,40.81053785482372,33.988233257996804,8.6,-4.55,0.4,1.75,-0.15,25.1,12.2,-2.2,1308.94,585.2475000000001,80.64,377.6875,162.1275,2770.890000000001,1516.6600000000003,1150.3600000000004,2
47.2207581472386,23.57116882973774,8.44393273303382,18.430952227163957,14.410065926289164,47.66550115125194,35.22712023427405,22.559920212624867,12.6,-0.4,-1.9,1.1,1.85,18.8,4.45,5.65,2071.04,555.44,67.69,338.48999999999995,204.2275,1918.5600000000002,1221.1475,477.02750000000003,2
42.41285182583223,15.152557539900648,11.403946685248927,26.864474683120086,17.35943547469214,55.83189052862172,54.068937478001175,31.660701192487824,-11.55,-3.0,-1.15,1.6,5.75,15.0,7.35,3.3,1665.4474999999998,220.6,128.7275,719.14,268.2875,2892.2,2869.4274999999993,991.51,2
48.45410199353611,17.19592975096142,13.332291625973383,31.516662259826944,23.651638421048126,52.483807026548675,55.90393546075267,43.56317251991641,4.4,-2.9,-3.45,-7.4,0.6,21.05,5.45,1.85,2328.4399999999996,287.2900000000001,165.84750000000003,938.54,559.04,2311.4475,3095.5474999999988,1894.3275,2
53.453718299104324,23.535080199565922,12.144957801491119,28.967222856186957,22.117866081518805,52.98631898896167,46.66636904667,39.263851059212215,-1.6,-7.4,-1.8,-5.0,-3.0,11.15,1.45,6.35,2854.7400000000007,499.14000000000004,144.25999999999993,814.1,480.2,2683.2275,2175.6475,1501.3274999999999,2
49.83472684785179,24.841497539399672,10.222524150130436,24.050987505713774,11.882760622010357,49.47979385567405,41.10291960432981,34.488403848250215,-8.0,-2.7,0.8,2.35,0.9,3.05,-0.55,2.85,2419.5,609.8100000000001,103.85999999999999,572.9275,140.39000000000001,2438.9474999999998,1689.1475000000003,1181.3274999999999,2
49.83924156726304,24.456083087853624,12.477980605851252,22.11334438749598,14.630447703334305,52.09894432711665,35.41115643409574,32.39444396806341,-3.05,1.4,-2.8,3.1,3.05,-6.3,-0.95,-0.8,2474.6475,596.1399999999999,147.86,479.39000000000004,204.7475,2674.6100000000006,1253.0475000000004,1048.7600000000002,2
53.825179981120364,24.698178070456937,10.21273714534943,23.68227185047921,13.283448347473632,47.50368406765943,33.71127407856309,18.602419197512994,0.45,-1.7,-1.0,1.35,-1.95,-10.5,-6.15,-0.25,2896.9474999999998,607.11,103.3,559.0275,172.64749999999998,2146.35,1098.6274999999998,345.9875,2
56.1279787628238,22.38637978771914,6.967783004657938,27.390691849604675,8.820430828479978,38.58756276314948,24.391596913691405,18.936736783300336,-5.45,-2.65,0.85,-1.15,-3.9,-12.7,-5.85,-2.0,3120.6475,494.12749999999994,47.8275,748.9275,62.58999999999999,1327.7100000000003,560.7275,354.6,2
45.7618837024876,19.53714411064217,5.987486951969082,24.305349205473266,19.89095271725314,39.41573289944004,21.098578151145635,19.04993438308909,0.95,-2.6,-0.85,2.05,-4.85,-0.2,2.95,-2.2,2093.2475,374.94,35.1275,586.5474999999999,372.12750000000005,1553.5600000000002,436.44749999999993,358.06000000000006,2
44.09251637182891,20.80624906127964,5.431390245600108,19.47819293466414,20.862646045025066,38.21648858804273,31.75531451584128,21.226163101229577,-1.55,-4.5,-1.2,-2.0,-2.15,9.3,-0.2,0.75,1941.7475,412.65,28.059999999999995,375.4,430.62749999999994,1374.0099999999998,1008.3599999999999,449.9875,2
40.49135710247312,18.994736112934024,5.572252686302013,16.899704139422088,16.96614275549985,43.78641341786285,33.91386147285502,18.66949383352425,-1.15,-2.0,-0.35,-2.9,-1.25,10.05,-0.75,-0.05,1638.2275000000002,356.8,30.92749999999999,277.19,286.2875,1816.2475,1149.5875,348.5475,2
46.39989224125418,24.735601872604597,6.2289646009589745,18.35755975068582,16.382917933017914,51.3337121198146,28.494736356036004,14.39791651594077,2.85,-0.75,1.7,-2.0,-3.2,8.55,3.35,-7.2,2144.8275,611.2875,35.91,333.0,258.1599999999999,2562.0474999999997,800.7274999999998,155.45999999999998,2
49.37256323100918,24.313576454318685,5.128352561983234,24.84552273549502,12.437845472588892,44.27696918263489,34.363498075719825,14.979986648859205,-11.05,-0.05,0.1,3.2,2.9,10.85,11.75,-6.0,2315.5474999999997,591.1474999999999,26.290000000000003,607.0600000000002,146.29000000000002,1842.7275000000002,1042.7875,188.4,2
48.075461516245475,20.773781552716876,5.826662852782886,28.627783707440575,13.507405376311173,44.37059837324712,40.29888335921977,15.401298646542765,-20.35,-6.45,-2.75,-1.85,1.45,-1.45,5.6,-2.1,1897.1274999999994,389.9475,26.3875,816.1275000000002,180.3475,1966.6475000000003,1592.6399999999996,232.79000000000005,2
41.739070425681504,22.53552750658391,6.220932405998316,25.96728711282717,15.228263197095066,51.398443556201194,36.045804194108364,15.301960658686847,-5.75,-0.95,-2.0,-8.4,-4.4,-11.2,-11.2,-1.85,1709.0875,506.94750000000005,34.7,603.74,212.54000000000002,2516.3599999999997,1173.86,230.72749999999996,2
37.004053831979,22.915060549778175,5.329165037789691,22.898689918857805,14.403124660989365,40.16715075780208,26.852374196707448,12.858849093134268,-4.9,3.0,-1.7,-7.35,-3.05,-9.0,-8.05,-0.65,1345.2900000000002,516.1,25.51,470.32750000000004,198.14749999999995,1532.4,656.2475000000001,164.9275,2
29.80771712157776,15.404544783926593,4.954795656734998,16.767528142215834,12.120231020900551,39.35860769895195,18.5930094390338,14.901342221424217,-5.3,1.3,-0.75,-1.75,0.2,-0.5,-2.8,0.35,860.4100000000001,235.60999999999996,23.9875,278.0875,146.85999999999999,1548.85,337.86,221.9275,2
30.511473251876907,15.831929762350514,7.351870510285121,16.46207763315433,13.2664991614216,51.83097529470191,24.507141816213494,20.795432190748045,6.55,0.25,-2.05,-0.4,0.0,4.55,4.1,2.45,888.0475000000002,250.5875,49.847500000000004,270.84000000000003,176.0,2665.7475000000004,583.7899999999998,426.44750000000005,2
48.39369793681818,24.095642759636025,7.26636084983398,19.43193248238579,12.81990639591413,56.84936235350402,29.04393224065915,24.164022843889217,13.65,7.5,-2.2,-1.1,1.95,9.65,0.05,3.1,2155.6275,524.35,47.96000000000001,376.39000000000004,160.54749999999999,3138.7275000000004,843.5474999999999,574.29,2
50.74347248661645,23.704429965725815,5.835237784358063,27.06381347851777,16.15394688613281,49.28234978164089,27.650497283050804,25.841826560829634,15.1,10.1,-1.55,-5.45,-0.35,13.15,5.25,8.6,2346.8900000000003,459.89,31.647499999999997,702.7475,260.8275,2255.8275000000003,736.9875,593.8399999999998,2
47.05475533886028,15.200328943809078,7.446475676452586,26.05187133393684,16.635804759614125,55.128032796391345,36.52875579594794,22.664950915455343,-6.55,-1.85,-2.85,-1.3,-5.25,-8.9,2.45,0.1,2171.2475,227.62750000000005,47.3275,677.0100000000001,249.1875,2959.8900000000003,1328.3474999999999,513.6899999999999,2
44.04145774154166,15.724185193516387,7.619055059520177,16.72572868367773,12.014574482685601,68.5029196458078,42.016663361099965,21.44527920079382,-6.05,-2.85,1.25,6.95,-0.15,-1.65,-2.6,0.2,1903.0475,239.12749999999997,56.4875,231.4475,144.32750000000001,4689.9275,1758.6399999999999,459.86,2
42.23742416388575,12.419742348374221,6.2088646305101545,20.019990009987517,11.169153951844338,61.70939960816342,38.511037378912555,16.53329973114865,-2.1,-2.95,2.25,5.0,-0.35,10.15,-11.0,1.15,1779.5900000000001,145.54749999999996,33.4875,375.8,124.62750000000001,3705.0275,1362.1,272.02750000000003,2
41.7983253253046,14.08190328045183,4.312771730569565,18.256505689753446,12.587692401707312,34.81594462311772,32.782617345172426,15.066519173319364,-5.7,-7.0,-1.2,2.5,-0.85,-3.55,-10.2,-3.4,1714.61,149.3,17.159999999999997,327.05,157.72749999999996,1199.5475000000001,970.6599999999996,215.43999999999997,2
42.102850259810204,15.16739924970659,4.0743097574926725,14.903019828209315,14.003570973148241,36.136546597592854,31.177716401301748,19.664689166117018,7.35,0.15,-1.9,-1.3,-2.0,-15.25,-5.15,-3.9,1718.6274999999998,230.0275,12.990000000000004,220.40999999999994,192.1,1073.2875,945.5275000000004,371.48999999999995,2
38.50779141939979,20.92606030766422,4.049691346263317,19.7977271422757,17.375269782078206,41.42161271606889,23.7392080744072,14.401388821915754,2.95,1.2,-0.4,-4.05,-3.9,-9.35,-0.15,0.6,1474.1474999999998,436.46000000000004,16.240000000000002,375.5475,286.69000000000005,1628.3274999999999,563.5274999999997,207.04000000000005,2
38.978199034845105,21.825443867193172,5.916079783099616,20.108455932766194,16.314104327237825,45.89825704751761,18.029143074478053,15.938946012832844,-9.2,-1.55,-1.2,-3.65,0.65,5.45,5.05,-3.65,1434.66,473.94750000000005,33.56000000000002,391.02750000000003,265.72749999999996,2076.9475,299.54749999999996,240.72750000000002,2
48.545854611902755,20.502438879313846,6.899275324264136,16.593673493232295,12.676750372236569,42.559370296093434,29.28736929121494,22.80021929719098,-3.7,0.75,-0.7,-0.35,3.2,7.6,4.95,1.05,2343.0099999999998,419.7875,47.110000000000014,275.22749999999996,150.46,1753.5400000000002,833.2475000000001,518.7475000000002,2
37.80145499845211,19.136352839556444,5.389805191284746,15.876082640248507,12.087183294713455,33.341415686800104,29.808555818757807,23.186202793903103,8.05,2.7,0.55,-1.65,1.1,-1.95,0.55,0.5,1364.1475,358.90999999999997,28.747499999999995,249.32750000000004,144.89,1107.8475,888.2475000000001,537.35,2
43.47930542223507,16.121414330014595,4.110960958218893,16.178689687363438,10.44030650891055,34.92491947020064,25.016994223927064,18.03607496103296,8.05,1.1,-0.8,-0.25,-2.9,-10.75,-2.35,-2.8,1825.6474999999998,258.68999999999994,16.259999999999998,261.6875,100.59,1104.1875,620.3275,317.46000000000004,2
47.28318940173135,20.611889772653065,5.300943312279429,15.261061562027722,10.246950765959598,44.02783210652098,26.354316534488234,14.04813154835902,12.9,5.75,-1.6,-0.4,-1.6,-1.95,0.35,-0.05,2069.29,391.7875,25.540000000000006,232.74000000000007,102.44000000000001,1934.6475000000003,694.4275,197.34750000000003,2
34.41293361513953,19.301554341554983,5.333854141237834,17.88295277631745,11.23832727766904,41.80968787254935,22.79144576370705,11.717508267545622,10.35,3.55,-0.65,2.8,1.2,2.65,2.35,-1.5,1077.1275,359.9475,28.027500000000003,311.96,124.85999999999999,1741.0275000000006,513.9275,135.05,2
45.05496642990648,17.20319737723194,6.103277807866851,18.5,10.039920318408907,29.226700121635353,19.574217736604442,12.645157175772866,4.95,-2.25,-1.05,-1.35,-1.1,-6.4,1.25,-1.6,2005.4474999999998,290.8875,36.147500000000015,340.4275,99.58999999999999,813.2399999999999,381.5875,157.34,2
45.933103531113595,21.3915871313935,7.37563556583431,21.695621678117455,14.698639392814561,33.28738499792376,18.635986692418516,12.469963913339926,12.55,3.3,-1.7,-0.4,0.05,5.85,1.2,0.4,1952.3475000000003,446.7099999999999,51.51000000000001,470.53999999999996,216.04749999999999,1073.8274999999999,345.86,155.34,2
50.707001488946275,26.273560854973578,7.362064927722384,21.523243250030884,17.342145196024624,47.10254770179635,19.02104098097683,11.364418154925486,-3.2,-1.3,-1.3,1.85,2.85,13.15,1.2,-3.65,2560.96,688.6100000000001,52.510000000000005,459.8275,292.62749999999994,2045.7275000000002,360.36000000000007,115.82749999999999,2
47.2371675696162,22.541073621280777,6.6257075093909785,23.940551372096674,14.897986441126868,44.22160105649726,20.805047464497648,12.296340919151518,-17.65,-11.3,-2.1,-3.55,0.25,0.95,-1.05,-3.1,1919.8275,380.40999999999997,39.489999999999995,560.5475,221.8875,1954.6475000000003,431.74749999999995,141.59,2
35.40127116361784,20.900956915892632,5.995831885568507,25.972100415638316,15.934239862635431,40.8656334834051,34.14527785799964,28.642625577973817,-3.35,-1.25,-2.15,-2.95,-0.4,-4.4,-7.4,-4.7,1242.0275,435.2875,31.327500000000004,665.8475000000001,253.74000000000007,1650.64,1111.1399999999999,798.3100000000002,2
46.523112535598905,26.34293074052316,6.216912416947821,24.73459116298468,20.694202086574876,59.01991189420736,36.13101161052649,30.364452901377952,-3.9,-1.75,-2.55,-4.1,-1.35,-18.95,-11.25,-2.3,2149.1899999999996,690.8875,32.147499999999994,594.99,426.42749999999995,3124.2475000000004,1178.8875,916.7100000000003,2
50.055469231643414,23.075961518428652,6.232976816898969,25.63493709764079,20.694202086574876,48.16170678038726,35.002857026248584,26.39791658445795,-12.75,-6.3,-1.75,-3.25,0.95,-12.65,-6.7,0.25,2342.9875,492.81000000000006,35.7875,646.5875,427.34750000000014,2159.5275,1180.3100000000002,696.7875,2
38.28772649296377,21.340103092534488,6.629479617586889,28.274546857553705,12.157302332343306,35.03712316957544,33.370645783382734,24.596747752497688,-2.65,-1.5,-0.95,1.25,1.4,-9.0,-7.8,1.1,1458.9275000000002,453.15,43.0475,797.8875,145.84,1146.6,1052.7600000000002,603.79,2
45.224440295044005,22.55881202545914,5.92452529743945,24.079036525575518,11.309288218097548,44.43422104639621,26.506602950962993,25.26954688948735,-11.95,-4.3,-0.9,-0.3,-3.8,-20.3,-1.2,1.15,1902.4474999999998,490.41,34.29,579.71,113.46000000000001,1562.3100000000002,701.1600000000001,637.2274999999998,2
53.51635264103861,20.498780451529306,7.249137879775773,17.01910690958841,11.70256382165891,36.18908675277673,28.39013913315678,24.515301344262525,-14.0,-3.7,-0.15,1.95,0.85,-13.65,-6.7,1.9,2668.0,406.5100000000001,52.52750000000001,285.8475,136.22750000000002,1123.3274999999996,761.1099999999999,597.39,2
43.71498598878879,22.055611530855362,11.031772296417289,18.301639270841285,14.382280764885659,33.75722144963948,31.073300436226596,15.039946808416577,-9.1,-8.45,0.6,-0.15,1.45,-6.05,-13.45,0.0,1828.1899999999998,415.0475,121.34,334.9275,204.74750000000003,1102.9474999999998,784.6475000000002,226.2,2
34.6878941419049,19.070920271449932,10.387492478938313,23.015212360523638,17.822738285684384,40.59495042489891,25.362373705944798,13.874436925511608,2.65,-6.5,-0.1,2.8,2.35,-8.25,-2.05,3.9,1196.2275,321.45,107.89000000000003,521.8600000000002,312.1275,1579.8875,639.0474999999999,177.29000000000002,2
44.603811496328426,20.636133358747227,5.408326913195984,18.563404860100423,17.049926686059386,41.12784944535758,23.64000846023537,26.346726551888757,-3.4,0.25,0.55,5.7,1.8,-2.7,4.55,2.95,1977.94,425.7875,28.947499999999998,312.1099999999999,287.46000000000004,1684.2100000000003,538.1475,685.4475,2
42.82113963920157,19.25746608461248,5.6964901474504455,16.306440445419103,12.694486992391619,37.340326725940685,32.36896661927903,28.440288324839464,-9.25,-0.55,0.65,0.7,-1.15,0.7,0.55,0.15,1748.0875,370.54749999999996,32.027499999999996,265.41,159.82749999999996,1393.8100000000002,1047.4475,808.8274999999999,3
38.39466108718763,11.34460224071342,19.39974226632921,26.101724080987445,35.134740642275986,22.051077071199945,39.41509862983981,50.01149867780409,-1.85,-1.6,-2.65,1.1,6.75,0.15,15.05,-2.25,1470.7275,126.13999999999999,369.32750000000004,680.0899999999997,1188.8875,486.22749999999985,1327.0475000000001,2496.0875,3
33.83563210581413,9.233092656309694,16.599698792448013,27.932955446926844,35.59213396243614,20.63371028196335,37.608509675338105,42.38336937998205,-2.85,-0.45,-3.95,-1.45,1.9,0.25,2.8,4.85,1136.7275000000002,85.04749999999999,259.94750000000005,778.1475,1263.19,425.6875,1406.56,1772.8274999999999,3
29.62600209275629,8.461678320522472,15.282342752340035,28.876461001999537,26.478292996339473,16.721243972862784,44.08344360414689,56.54423047491229,-3.2,-2.2,1.75,4.35,4.0,4.0,-0.25,12.95,867.4599999999998,66.76000000000002,230.4875,814.9275,685.1,263.6,1943.2875,3029.5474999999997,3
28.82186669874108,9.082951062292475,16.127616066858735,27.64145437562937,25.402755756019857,15.786069808536892,51.817950557697664,59.838532736022195,-3.5,-2.2,6.9,4.55,0.6,-0.9,-10.7,-9.35,818.45,77.66000000000001,212.49,743.3475000000001,644.9399999999999,248.39000000000001,2570.6099999999997,3493.2275,3
24.833445189904683,9.866610360199697,15.210193950111222,20.871032557111302,30.01166439902992,17.324837661577092,50.661622555934784,53.356817746188725,-9.4,-0.45,3.35,2.5,-0.4,2.85,-15.5,-18.45,528.34,97.14750000000001,220.1275,429.35,900.54,292.02750000000003,2326.35,2506.5474999999997,3
25.019992006393608,9.489467845985885,13.354774427147769,15.368799562750501,26.250714275996376,16.23422311045404,46.79102478039993,50.07494383421713,-8.3,-0.05,1.25,-0.9,6.9,3.95,12.4,-3.5,557.1099999999999,90.0475,176.7875,235.39000000000001,641.49,247.94750000000005,2035.64,2495.25,3
24.428467000612216,9.481561052906848,16.782431289893605,17.281492991058382,20.355588913121625,16.5,46.72954097784398,53.07070755134135,-7.65,-3.9,2.45,-4.65,4.45,0.45,3.75,-10.4,538.2275000000001,74.68999999999997,275.6475,277.0275,394.5475,272.04749999999996,2169.5875,2708.3399999999997,3
21.417282740814716,9.45515732285825,13.836545811726277,30.414634635319885,25.341665296503308,15.792403236999744,47.34712240464039,49.286915099243124,-0.8,-1.2,-0.85,-10.05,-2.6,2.1,1.45,1.7,458.05999999999995,87.96000000000001,190.72749999999996,824.0475,635.4399999999999,244.99,2239.6474999999996,2426.3100000000004,3
30.227470949452588,8.464632301523794,17.308957218735046,32.37437258079297,23.224986544667793,14.396180048887969,43.610778484223374,46.71348841608813,-8.8,-0.55,-2.7,-5.0,-2.1,-2.85,6.2,4.25,836.26,71.3475,292.30999999999995,1023.1,534.99,199.1275,1863.4599999999998,2164.0875,3
35.106979363083916,8.282511696339462,19.38169239256469,23.952035404115453,21.9396900616212,14.889593681494468,34.0117626711701,47.97343014627993,-14.6,-2.0,-4.25,-3.2,0.75,-2.3,-13.0,0.25,1019.3399999999999,64.6,357.5875,563.46,480.7875,216.41,987.8,2301.3875,3
21.595138341765722,6.960603422117942,13.878040207464453,26.150525807333207,27.064737205448715,15.0996688705415,35.45278550410391,47.757198410292034,-0.85,1.25,2.6,-5.05,-6.9,0.3,-7.6,-2.15,465.62750000000005,46.8875,185.83999999999997,658.3475000000001,684.8900000000001,227.91,1199.1399999999999,2276.1274999999996,3
37.531320253889284,11.054410884348384,12.886038956948719,26.83840531775314,29.90652102802999,15.096357176484664,39.877311845208425,49.53130323340988,-0.3,0.8,3.65,-0.6,-2.4,-2.8,-3.2,-16.65,1408.51,121.55999999999999,152.7275,719.9399999999999,888.6399999999998,220.05999999999995,1579.9600000000003,2176.127500000001,3
38.066389374354905,13.976766435767608,11.92057045614848,31.18012187275733,24.957964660604837,15.22005256232711,39.78002011060326,44.05167420200962,1.15,0.25,0.3,1.0,-3.3,0.05,-5.95,0.05,1447.7274999999997,195.2875,142.00999999999993,971.2,612.01,231.64749999999998,1547.0475,1940.5475000000001,3
26.75070092539633,12.491997438360288,13.908630414242806,28.179779984946652,24.479583329787296,16.519685227025363,41.61430042665622,37.38582619121851,1.1,0.35,-1.05,1.0,-2.85,0.8,-7.05,4.5,714.3900000000001,155.9275,192.34750000000003,793.1,591.1275000000002,272.26,1682.0475000000001,1377.45,3
27.62607463973121,10.651291001564083,16.430155203162265,26.68707552355634,26.666458332519525,17.268468374467957,44.60549293528769,44.9199287621875,-1.2,-0.85,-5.75,3.1,3.8,2.9,0.05,5.0,761.76,112.7275,236.8875,702.5899999999999,696.6600000000001,289.7899999999999,1989.6475000000003,1992.8,3
24.155744658362327,10.573551910309043,15.20690632574555,26.985181118532445,28.77672670753225,19.298963702748395,45.70503254566175,46.27904493396552,0.1,-1.3,-4.05,3.7,-1.7,0.15,-5.75,0.55,583.49,110.10999999999999,214.84750000000003,714.5100000000001,825.21,372.42749999999995,2055.8875,2141.4474999999998,3
29.39642835447871,9.864076236526156,12.4056438768812,21.0261741645978,31.551545128567,18.782971010998235,39.58219296602956,44.50898785638694,6.85,-0.6,-0.5,-0.9,-12.2,-3.5,3.25,-7.65,817.2275000000002,96.94000000000003,153.65,441.2900000000001,846.6599999999999,340.55,1556.1875,1922.5274999999995,3
30.14133374620307,9.825985955617888,8.766413177577247,17.06311812067185,26.943459317615474,13.211737205984685,38.94740042672938,43.19664338811524,-4.4,-0.95,2.25,1.95,-6.95,-3.65,2.1,-16.75,889.14,95.64750000000001,71.7875,287.34749999999997,677.6475,161.22750000000002,1512.4900000000002,1585.3875,3
28.651352498616884,11.723907198540937,16.87305544351704,26.603571188846058,31.840226129850272,14.611639196202457,41.24318125460256,40.52900196155834,-4.8,0.95,-1.7,-4.05,7.3,-1.3,-5.3,-3.0,797.86,136.5475,281.80999999999995,691.3475000000001,960.5099999999999,211.81,1672.9099999999999,1633.6,3
30.47457957052074,13.069047402163633,17.340703561274555,29.006033855044713,30.211752680041588,16.00781059358212,29.110994486619656,51.35416244083823,-5.8,1.2,-2.4,-8.75,-1.75,1.25,-4.15,-4.35,895.0600000000002,169.35999999999999,294.94000000000005,764.7875,909.6875,254.6875,830.2275,2618.3275000000003,3
30.448316866454213,11.220516922138659,13.520355024924458,29.863857754817946,27.236923467968992,15.109599597606815,25.673916724956477,53.665631459994955,-12.6,-0.7,-3.6,1.55,0.65,2.8,3.65,-7.1,768.3399999999999,125.40999999999994,169.84,889.4475,741.4275000000001,220.45999999999998,645.8275,2829.5900000000006,3
28.128277586798664,11.417092449481173,14.390969390558789,31.335283627246778,22.126906697502932,17.362315513778686,36.493150042165446,47.41096919490257,3.9,-0.65,-6.6,-1.5,-0.2,1.15,0.45,12.9,775.99,129.92749999999998,163.54000000000005,979.65,489.55999999999995,300.1275,1331.5475000000001,2081.3900000000003,3
27.440845468024488,12.670832648251654,12.81990639591413,30.788796663721694,23.138712150852303,15.332971010211947,43.81894567421722,41.911215682678545,5.5,-0.75,-2.05,-4.45,-0.6,1.8,6.6,10.55,722.75,159.9875,160.14749999999995,928.1475,535.04,231.85999999999996,1876.5399999999997,1645.2474999999995,3
24.97799031147222,11.679041056525147,13.152946437965905,28.22764602300376,23.790754506740637,12.062338081814818,45.94072267607466,36.851051545376556,-0.6,0.5,-4.7,-0.3,2.0,1.0,12.25,1.0,623.5399999999998,136.15,150.91,796.7100000000002,562.0,144.5,1960.4875,1357.0,3
29.337689070545416,11.425847889762931,15.59967948388684,22.02271554554524,27.97141397927534,12.821856339859686,44.787274978502545,37.621802189687834,-7.2,-0.75,-2.15,4.3,-2.5,-1.8,2.5,-11.6,808.8599999999999,129.9875,238.72750000000002,466.50999999999993,776.15,161.15999999999997,1999.65,1280.84,3
31.80330171538798,8.228000972289685,12.126417442921879,31.13438613494732,28.58933367534123,14.307340773183533,37.387163572541844,37.40588189041932,-4.65,-0.3,2.05,5.65,-0.25,-0.8,6.2,-7.1,989.8275,67.61,142.8475,937.4275000000001,817.2875,204.06,1359.3600000000001,1348.79,3
31.117519181322923,7.26636084983398,13.885243966167826,29.752310834622577,28.416544476765644,14.140367746278736,42.193601410640454,45.933647797665714,-3.3,-1.8,4.5,-4.6,0.7,-4.55,-5.7,-4.4,957.4100000000002,49.56000000000001,172.55,864.0399999999997,807.01,179.2475,1747.81,2090.54,3
25.441108466417102,11.258330249197702,15.64928113364956,22.70572615002656,20.50975377716661,13.0,48.220846114517734,43.77156611317443,-3.65,0.25,2.6,-2.15,1.25,-3.1,-4.45,-4.45,633.9275,126.6875,238.14000000000001,510.92749999999995,419.0875,159.39000000000004,2305.4474999999993,1896.1474999999998,3
16.592166826548002,12.485992151206888,13.377219442021573,23.406195760951842,26.198282386446635,13.96424004376894,42.2977540774921,36.73554137344378,-3.5,-0.9,0.85,-3.65,-3.25,-2.3,-1.1,-3.4,263.05,155.08999999999997,178.22750000000002,534.5274999999999,675.7875,189.71000000000004,1787.8899999999999,1337.94,3
16.721243972862784,12.651086909827155,9.992497185388645,31.62672920173694,26.253571185650152,16.602710622064098,45.66618004606911,35.174564673923115,-2.1,-0.85,-0.55,-8.55,-4.75,-4.45,-6.8,-1.85,275.19000000000005,159.32750000000004,99.54749999999999,927.1475000000003,666.6875,255.8475,2039.1599999999999,1233.8274999999999,3
30.763614872118,8.342661445845684,11.861703081766969,34.415112959279966,31.812733299733928,17.28583234906552,51.370224838908385,43.51608897867546,-3.5,-0.2,-0.1,-5.8,-2.85,-3.5,-1.5,4.15,934.15,69.56000000000002,140.69,1150.7600000000002,1003.9275000000001,286.55,2636.65,1876.4275000000002,3
30.433534135883725,9.596874491208062,13.141537200799608,25.86600085053737,28.075790282732914,13.418271125595876,36.29393888791901,38.93327625566592,-3.4,-0.3,0.0,4.05,2.35,-0.45,1.75,7.2,914.6399999999996,92.01,172.7,652.6475,782.7275,179.8475,1314.1875,1463.96,3
38.011182565134696,9.57078889120432,12.978828914813539,21.338931557132845,18.02498266295976,9.974968671630002,34.59335196247973,30.876366366527005,-3.25,-2.0,1.65,-4.05,7.7,0.6,-4.1,2.15,1434.2875,87.6,165.7275,438.94750000000005,265.61,99.14000000000001,1179.8899999999999,948.7275,3
33.15569332708939,9.777525249264253,12.93058390019569,27.12379029560581,27.120103244641236,11.530394615970435,43.9089968002003,41.51927263332054,-8.3,-1.8,1.0,-7.6,-2.1,0.45,-6.6,-0.75,1030.4099999999999,92.36000000000001,166.2,677.94,731.0899999999999,132.7475,1884.44,1723.2875,3
23.597669376444784,8.87130204648675,9.002777349240622,25.828279075463005,26.45940286552212,14.19683063222211,32.92567387313432,39.71838365291317,-1.45,1.0,0.45,-4.3,-2.1,1.25,-3.0,4.25,554.7475000000001,77.7,80.8475,648.6100000000001,695.6899999999999,199.9875,1075.1,1559.4875,3
27.30659261057666,9.828529900244492,10.883473710171767,19.555050498528505,22.745329190847073,13.457340004622013,29.34876488031481,32.789480020274794,-5.65,-0.7,0.15,0.9,5.65,3.3,0.35,2.75,713.7275,96.11000000000001,118.42750000000001,381.59000000000003,485.4274999999999,170.20999999999998,861.2275,1067.5875,3
28.70365830342885,11.313708498984761,12.44588285337766,27.09335711941213,24.17229819442082,13.446189051177289,34.90487072028773,39.223717314910374,-8.3,-1.0,1.3,-0.95,-3.6,-1.9,-3.65,-5.6,755.01,127.0,153.20999999999998,733.1475000000002,571.3399999999999,177.19000000000005,1205.0275,1507.1399999999999,3
30.70423423568808,10.578279633286312,11.31812705353673,25.108763410411115,24.07072911234722,12.134661099511597,37.89459064299283,38.54931906013386,4.45,0.8,-3.0,-3.35,-0.3,-7.25,-4.3,4.15,922.9475000000004,111.26000000000002,119.1,619.2275000000002,579.3100000000001,94.6875,1417.5100000000002,1468.8275,3
32.52768051982803,9.388823142439099,12.635268101627286,19.388140705080517,24.49081460466352,13.511106542396888,40.019370309888686,40.0,0.55,-0.65,-1.55,-4.9,4.8,-2.75,-11.15,-2.6,1057.7475,87.72749999999999,157.2475,351.89,576.7600000000001,174.9875,1477.2275000000002,1593.24,3
25.3357454991954,8.674675786448736,12.039518262787759,27.889065957826553,26.936035343012154,14.127986409959489,30.68224242130943,40.70073709406256,-6.8,-0.35,1.55,-10.6,-1.15,-1.1,-8.4,-8.95,595.6600000000002,75.12749999999998,142.5475,665.44,724.2275000000001,198.39000000000001,870.8399999999998,1576.4475000000002,3
22.971721746530015,8.783507272155013,10.981803130633876,33.28513181587238,30.869078379504625,13.185218997043622,34.1796723214252,38.80077318817242,-0.6,-1.95,-1.1,-11.3,-8.8,-0.35,-6.95,3.1,527.34,73.3475,119.39000000000001,980.2100000000003,875.4599999999998,173.72750000000002,1119.9474999999998,1495.89,3
28.426220290429047,6.689544080129826,11.766477807738388,27.920422632904394,29.314672094362578,11.452074047961792,28.837475617674997,42.005951959216446,-0.05,-0.65,-4.25,-4.25,-2.15,1.15,0.9,5.7,808.0474999999999,44.3275,120.3875,761.4875,854.7274999999996,129.8275,830.79,1732.0099999999998,3
28.365471968574752,8.794884877018005,10.457055034760025,15.350895739337167,21.070121024806667,8.792041856133306,28.086473612755306,50.023994242763145,3.6,-1.65,-4.45,0.25,4.75,1.9,-1.35,5.9,791.64,74.62749999999998,89.54750000000001,235.5875,421.3875,73.69000000000001,787.0274999999999,2467.5900000000006,3
28.355775425828156,8.980534505250787,7.33143914930759,18.544540975715737,19.907285098676816,15.246311029229332,32.47922412866416,44.118023527805505,0.45,-2.35,-1.05,-0.2,4.6,1.75,-1.1,6.9,803.8475000000001,75.1275,52.6475,343.85999999999996,375.14,229.3875,1053.69,1898.7900000000004,3
31.633842637276935,8.105553651663778,5.966573556070519,21.66910242718881,20.23116407921205,13.796738745080303,29.004310024546353,26.45940286552212,2.9,1.9,-0.8,3.55,-1.2,-1.55,-4.05,3.1,992.29,62.089999999999996,34.960000000000015,456.94749999999993,407.86,187.94749999999996,824.8475000000002,690.49,3
31.77892383325779,7.90253124005214,6.053924347066125,19.685019685029527,18.1190507477627,13.560973416388663,29.084360058285622,29.45080644057137,5.2,1.15,-1.05,0.0,-3.5,-4.5,-10.9,2.55,982.86,61.12749999999998,35.5475,387.5,316.05,163.65,727.09,860.8475000000001,3
25.11075466807001,7.94669742723353,6.156297588648554,20.837466256721328,12.056118778446072,14.486200329969208,32.035136959282696,41.36484014232377,-3.95,-1.45,-0.9,-1.9,-0.75,-1.25,-5.45,-8.65,614.9475,61.047500000000014,37.089999999999996,430.59,144.7875,208.2875,996.5475,1636.2274999999997,3
20.796634343085422,8.61974477580398,6.752777206453653,21.66217902243447,21.8105479069188,12.55985668708047,42.70889837024598,38.650355755154436,-2.1,-1.3,-0.6,1.15,-1.4,1.65,4.25,-9.45,428.09000000000003,72.61,45.24,467.92750000000007,473.74000000000007,155.02749999999995,1805.9875,1404.5475,3
25.465663156493687,8.868483523128406,6.024948132556827,18.706950579931515,25.13861571367843,10.242070103255495,38.811725032520776,32.17530108639234,0.3,0.95,-0.2,-2.55,-6.85,3.7,9.25,4.15,648.41,77.74749999999999,36.25999999999999,343.4474999999999,585.0274999999999,91.21,1420.7875,1018.0274999999999,3
24.262110378118386,12.0,6.866585760041158,12.24540730233176,23.587072730629377,12.769103335786738,25.21606630701942,28.97412638890084,0.95,3.0,-0.55,-2.95,-3.85,-1.15,3.15,-2.0,587.7475,135.0,46.847500000000004,141.2475,541.5275,161.72750000000002,625.9275,835.5,3
34.93279261668039,8.703447592764606,12.810152223919902,22.54994456755936,29.73129664175446,19.53970317072396,37.06278456889066,42.43877943579433,-0.7,-1.65,-1.1,6.1,0.15,1.9,8.65,-7.65,1219.8100000000002,73.0275,162.89000000000004,471.2900000000001,883.9275000000001,378.18999999999994,1298.8274999999999,1742.5274999999997,3
35.13758671280656,8.697700845625814,12.361229712289955,32.48615089542003,26.91839519733671,14.549914089093447,42.1473605342019,45.21061822182926,7.45,-1.25,1.9,2.55,-6.7,-0.8,-0.6,-5.4,1179.1475000000003,74.0875,149.18999999999997,1048.8475,679.7100000000003,211.06,1776.0400000000002,2014.8400000000006,3
30.669202793682135,7.749193506423749,11.077003204838391,29.36153946917634,26.183964558485027,13.555441711725958,43.21110968258048,38.58950634563754,10.6,-0.35,1.0,-0.5,0.4,2.85,-22.1,2.45,828.2400000000001,59.927499999999995,121.7,861.85,685.44,175.6275,1378.79,1483.1474999999998,3
29.435522757375995,8.34565755348253,9.856469956328178,25.64078781940992,30.37021567259607,17.30606829987678,37.16449918941462,34.656889646937444,4.55,-1.85,-3.45,-6.65,5.45,0.4,-10.9,12.0,845.7475000000001,66.2275,85.2475,613.2275000000002,892.6474999999998,299.34000000000003,1262.3899999999996,1057.1,3
23.699156103118945,8.663140308225419,12.060265337047937,34.785772953895965,38.09068127508355,20.711108130662637,28.750652166516154,30.12723020790328,3.65,-1.35,-1.45,-7.65,3.5,-1.25,-1.4,-0.45,548.3275000000001,73.22749999999999,143.3475,1151.5275,1438.65,427.3875,824.64,907.4475000000002,3
24.940930215210496,8.564461454172118,12.095453691366853,32.29705868960825,34.514489710844636,18.309833423600555,33.1345740881032,36.736902427940215,2.35,-1.75,2.7,-7.8,-1.45,-1.25,-7.6,-5.5,616.5274999999999,70.2875,139.01,982.2600000000002,1189.1475000000005,333.6875,1040.1399999999999,1319.35,3
31.27219212015685,8.8656641037206,10.566456359631644,29.36920155537089,29.817779930772847,16.23730273167314,45.94562003064057,37.1241161510951,8.75,-0.6,-0.95,-8.55,-4.4,-4.35,-2.8,3.2,901.3875,78.23999999999998,110.74750000000002,789.4475,869.7399999999998,244.72749999999996,2103.16,1367.9599999999998,3
35.11053972812152,8.240145629781066,10.44030650891055,28.818396901979124,29.275416307885358,14.184498581197715,46.89083066016212,31.382319863260587,-2.95,-0.6,-3.7,-6.6,-0.55,-1.1,12.65,-3.55,1224.0475000000001,67.54,95.31,786.9399999999998,856.7475000000001,199.99,2038.7275000000002,972.2474999999998,3
34.15552663918388,6.782329983125268,8.411301920630361,17.210461934532727,21.10213259365034,16.252692084697845,41.2365129466593,34.69365936305941,-5.3,-1.4,-1.65,-4.4,0.7,-2.45,-3.75,0.65,1138.51,44.03999999999999,68.02749999999999,276.84000000000003,444.80999999999995,258.1475,1686.3875,1203.2274999999995,3
27.1099612688768,7.158910531638177,7.771743691090179,16.47573974060042,21.64024029441448,18.16314950662467,40.544420084642965,43.26950427263987,10.15,-1.65,-0.4,0.25,5.1,-1.5,-14.75,13.85,631.9275,48.5275,60.23999999999999,271.3875,442.2900000000001,327.65,1426.2875,1680.4275000000002,3
24.78507615481542,7.661592523751182,7.58946638440411,19.89095271725314,22.483327155917117,14.226735395022992,36.97769598014457,45.878644269420164,2.9,-2.4,-1.2,-2.05,6.1,0.2,-1.95,15.85,605.8900000000001,52.93999999999998,56.15999999999999,391.44750000000005,468.2900000000001,202.35999999999996,1363.5475000000001,1853.6275,3
18.774983355518586,7.700649323271382,10.237187113655782,19.103664569919562,20.233635362929718,14.805404418657398,34.43980255460243,46.21742095790288,0.8,-1.8,0.4,-2.85,-2.0,-3.3,-3.5,5.55,351.86,56.06,104.63999999999999,356.8275,405.4,208.31,1173.85,2105.2475000000004,3
23.47977853387889,12.531959144523254,10.171037311896953,24.394671549336344,15.023315213360863,14.620191517213446,39.59861108675404,44.46009446683621,-5.4,-4.55,1.95,-2.3,-7.9,-5.25,-2.45,-8.9,522.1400000000001,136.34750000000003,99.64750000000001,589.8100000000001,163.29,186.1875,1562.0475,1897.4900000000005,3
26.290682760247975,15.438588018338983,9.129622117042961,23.13330931795103,24.800201612083722,13.226866597951307,37.77962413788681,34.42455518957362,-13.5,-4.85,1.35,-0.35,-2.05,-7.85,-3.3,-17.65,508.95,214.82750000000001,81.5275,535.0274999999999,610.8475,113.32750000000001,1416.4099999999996,873.5275000000001,3
24.08734107368433,12.224974437601086,9.568176419778222,19.444793647657978,26.98796027861313,14.055248130146975,37.446628686705566,28.226760352544886,-1.7,-0.05,1.75,8.0,2.85,-4.55,-4.25,-8.95,577.3100000000002,149.44749999999996,88.4875,314.1,720.2275,176.8475,1384.1875,716.6475,3
31.00725721504564,10.242070103255495,10.348912986396204,27.914154115788644,21.43245202957422,12.982680770934792,34.292856398964496,43.733854163565326,-4.75,-0.9,0.2,1.6,-1.25,0.45,2.8,-9.45,938.8875,104.08999999999999,107.06000000000002,776.6399999999999,457.7875,168.3475,1168.1600000000003,1823.3474999999999,3
41.03230434669737,10.938464243210744,10.27131929208707,28.321370023358686,23.138712150852303,12.391529364852428,21.409110210375395,44.7006711359013,-6.75,-2.45,-2.0,2.6,-1.3,0.15,1.75,-7.85,1638.0875,113.64750000000001,101.5,795.3399999999999,533.71,153.5275,455.2875,1936.5275000000001,3
43.70812281487275,10.719141756689293,9.513148795220223,23.722352328552915,24.480604567698077,11.91007976463634,26.253571185650152,33.94628109233764,4.4,-2.0,-3.4,5.45,3.5,0.05,5.45,8.95,1891.0399999999997,110.9,78.94,533.0474999999999,587.05,141.84750000000003,659.5475000000001,1072.2475,3
33.809022464425084,8.508818954473059,10.507140429250958,23.08029462550251,26.652392012725613,13.784048752090222,28.627783707440575,36.02776706930364,-0.65,-1.1,-1.1,-6.1,-0.65,-2.8,2.95,1.2,1142.6274999999998,71.19,109.19000000000001,495.4900000000001,709.9275,182.15999999999997,810.8475000000001,1296.56,3
24.475497952033578,9.394147114027968,9.423375191511797,20.843464203437968,24.53059314407216,13.654669530969983,34.262953754748,43.68981574692207,-8.15,-1.85,0.9,-9.45,5.75,-1.35,4.85,-5.8,532.6274999999998,84.82750000000001,87.99000000000001,345.14750000000004,568.6875,184.62750000000005,1150.4274999999998,1875.1600000000003,3
21.927152117865194,10.331989159885913,9.370165420097983,18.953891421024867,28.106938645110393,13.06330739131557,34.05950674921761,45.053301765797364,-2.2,-1.85,-1.8,-2.15,10.9,1.05,-2.75,1.3,475.9599999999999,103.32750000000001,84.56,354.62750000000005,671.1899999999999,169.54749999999999,1152.4875,2028.1100000000001,3
22.578751072634642,9.354143466934854,9.388823142439099,22.332711434127294,37.77168251481525,13.279683731173721,30.856927909304257,30.525399260288143,-3.6,-1.3,-1.05,0.45,-6.4,-3.45,-14.55,-5.7,496.84000000000003,85.81000000000003,87.0475,498.5475,1385.7400000000002,164.4475,740.4475000000002,899.3100000000002,3
26.733873643750172,8.351646544245034,9.803060746521975,29.434673431176368,33.31591211418352,13.164345787011218,33.8563140344604,36.45613802914401,-6.2,-1.85,1.4,-4.2,-9.25,-3.0,-19.45,-6.45,676.26,66.32749999999999,94.14000000000001,848.76,1024.3875,164.3,767.9475,1287.4474999999998,3
32.940856090878995,7.412826721298698,9.972462083156797,22.73103605205887,23.724459951703853,13.800362314084365,38.94419083765896,48.78678099649535,-4.0,-3.05,1.55,-1.4,-3.05,-3.15,-18.95,-4.25,1069.1,45.6475,97.04750000000001,514.74,553.5475,180.52749999999997,1157.5475000000001,2362.0875,3
29.974155534393294,9.987492177719089,8.018728078691781,20.287927444665215,22.190087877248256,15.360664048145836,38.202748592215194,43.29549630157853,-0.45,-1.85,-0.1,0.0,-1.6,-5.05,-16.65,-7.9,898.2475000000001,96.32750000000001,64.29000000000002,411.6,489.84,210.4475,1182.2275,1812.0899999999997,3
26.145745351777602,10.205390732353171,7.3246160308919945,21.691011963483863,20.915305400591215,15.644487847162015,43.747571361162436,37.68156047724138,2.9,-1.35,-0.05,-6.1,2.65,-2.75,-8.95,3.6,675.19,102.32750000000001,53.6475,433.2900000000001,430.42749999999995,237.1875,1833.7475000000002,1406.94,3
21.395092895334667,6.422616289332565,7.58946638440411,18.936736783300336,22.106560112328648,12.767145334803704,34.48405428600297,39.612498027768964,2.15,-1.65,-0.7,-2.5,2.6,1.9,6.65,4.45,453.12749999999994,38.52749999999999,57.11,352.35,481.9399999999999,159.39,1144.9275,1549.3475,3
19.219781476385208,6.016643582596529,9.273618495495704,18.382056468197458,16.936646657470305,10.027462291128298,27.018512172212592,41.24924241728568,0.6,0.7,0.7,-0.3,-1.85,0.85,-1.7,-0.5,369.0400000000001,35.71,85.51,337.81,283.4275,99.8275,727.1099999999999,1701.25,3
26.68707552355634,6.232976816898969,8.50588031893231,16.295704955601032,14.24956139675885,13.147243057006285,32.37051127183505,35.27888887139163,6.4,0.35,-1.25,-1.45,-1.85,-3.55,-4.35,-1.2,671.2399999999999,38.727499999999985,70.7875,263.44750000000005,199.62749999999997,160.2475,1028.9275000000002,1243.1600000000003,3
29.019820812679047,7.269800547470337,6.5038450166036395,19.133739833080202,15.665248162732693,13.638181696985855,35.55348084224666,31.156861202630793,4.35,0.45,-2.2,-5.3,-5.0,-1.3,4.95,-7.45,823.2275000000002,52.6475,37.459999999999994,338.00999999999993,220.4,184.31,1239.5475000000004,915.2475000000002,3
19.73068675946177,8.049844718999243,7.987490219086343,20.400980368599935,13.46291201783626,8.40535543567314,30.21423505568195,28.044607324760317,-3.8,-0.2,-1.5,-2.3,-2.85,-1.85,8.7,-2.8,374.86,64.76,61.55,410.91,173.12750000000003,67.22749999999998,837.21,778.6600000000001,3
18.51215816699933,5.656854249492381,9.599479152537391,20.52681173489931,19.327441631007453,12.62933094031509,37.369104886255975,38.231531489073255,-2.1,-3.0,-0.95,-3.45,3.65,-1.2,-1.55,-1.25,338.29,23.0,91.2475,409.4475,360.2275000000001,158.06,1394.0475000000001,1460.0875,3
21.612496385193452,7.755643106796495,8.330666239863412,25.34955620913313,19.767397400770797,14.47929556297543,37.469987990390386,47.80062761094252,0.4,-2.55,0.6,1.0,2.55,4.15,4.3,10.5,466.93999999999994,53.6475,69.03999999999999,641.6,384.2475,192.4275,1385.51,2174.65,3
26.815107682051174,7.496665925596525,7.0710678118654755,31.025795719046435,22.208106627986098,13.334166640626627,26.24023627942401,44.658145953454,-4.45,-0.2,1.2,4.3,-2.1,4.9,5.05,6.15,699.2475000000001,56.160000000000004,48.55999999999999,944.1099999999999,488.7900000000001,153.79000000000002,663.0475000000001,1956.5275000000001,3
24.12156711327023,8.17618492941543,8.142481194328912,30.335622624235025,29.557570942146107,13.317282004973837,24.342349927646673,32.72690025040563,-4.95,-0.65,-0.7,-1.95,-0.55,2.15,2.45,-2.25,557.3475000000001,66.42750000000001,65.81,916.4475,873.3475000000001,172.72750000000002,586.5474999999999,1065.9875,3
25.544079548889602,8.514693182963201,8.218880702382776,26.5941722939444,24.961971076018816,11.577996372429904,24.3567239176372,31.049959742324948,-8.2,-1.9,-0.85,-3.45,-2.4,-0.25,1.55,-4.5,585.26,68.89,66.82749999999999,695.3475000000001,617.34,133.9875,590.8475000000001,943.85,3
27.534523783788234,8.83742043811428,6.774953874381729,19.60229578391266,28.745434420095307,11.480418110852932,21.274397758808593,28.49736829954654,-6.45,-0.9,-1.7,-1.15,-2.5,-3.4,-5.2,-8.3,716.5475,77.28999999999999,43.01,382.9274999999999,820.05,120.24000000000001,425.56000000000006,743.21,3
16.646320914844818,9.15969431804359,6.1278054799414114,16.622274212634082,27.258943486496317,15.337861650177967,23.613555429032708,27.858571391943272,-2.6,0.0,-0.95,-2.0,-0.45,-5.15,0.2,3.7,270.34,83.9,36.6475,272.3,742.8475000000002,208.72750000000002,557.5600000000002,762.41,3
25.812787528664934,7.57957782465488,7.54983443527075,29.488980992906487,22.21823575354263,15.727364687066935,28.35753868021694,32.83214887880475,-6.3,-1.55,-0.7,1.7,0.15,-4.15,-1.75,4.45,626.61,55.0475,56.510000000000005,866.71,493.62749999999994,230.12750000000005,801.0875,1058.1475,3
27.796582523756406,7.858116822750856,8.127115109311545,37.299463803116524,21.77039273876335,8.33966426182733,30.220026472523152,30.719700519373557,2.25,-0.85,-1.45,-5.75,-3.15,0.35,-3.25,0.2,767.5875,61.02750000000001,63.947500000000005,1358.1875,464.0275,69.4275,902.6875,943.6599999999999,3
20.396078054371138,8.938679992034618,8.182297965730655,30.03747659175118,26.741353742845558,11.291589790636214,33.995587949026564,43.181014346585236,7.7,1.9,-1.55,-4.85,1.0,-4.3,-7.8,-2.8,356.71,76.29,64.5475,878.7275000000002,714.1,109.01000000000002,1094.86,1856.7599999999998,3
18.15075755994774,8.294576541331088,7.231873892705818,20.149441679609886,35.05923558778771,13.838352503098047,37.561283258163584,48.394214530251446,7.35,1.9,-1.6,2.2,4.25,-3.6,-11.85,4.2,275.4275,65.19000000000001,49.74,401.16,1211.0875,178.54000000000002,1270.4275000000002,2324.36,3
17.061652909375457,7.655063683601855,5.263078946776307,13.175735273600482,30.054117854297438,11.861703081766969,32.80853547478156,33.90206483387111,2.6,1.3,-1.5,0.3,1.85,3.0,-4.1,-4.15,284.34,56.91000000000001,25.45,173.50999999999996,899.8275000000001,131.7,1059.59,1132.1275,3
18.840116772461894,7.842193570679061,6.248999919987197,23.97185850116757,27.470893687683333,9.359487165438072,33.139855159611066,33.681597349294464,-1.65,0.3,0.35,3.45,6.55,3.0,1.05,-11.55,352.2275,61.40999999999999,38.9275,562.7475000000001,711.7475,78.6,1097.1474999999998,1001.0474999999999,3
19.37266114915553,7.1693793315739685,5.357238094391549,25.67489045740994,27.04440792474481,11.95198728245642,39.7460689880144,32.07335342616983,0.5,-0.4,0.9,3.5,4.9,1.35,2.55,-4.8,375.05,51.239999999999995,27.890000000000004,646.95,707.39,141.02749999999997,1573.2475,1005.6600000000002,3
18.038846969803807,7.046275611981127,3.9115214431215892,14.611639196202457,23.4222116803687,12.782800945019837,34.62369131100842,34.57672627649992,-0.2,0.55,1.3,-0.7,-0.1,3.5,0.6,-5.95,325.36000000000007,49.347500000000004,13.61,213.01000000000005,548.5899999999999,151.15,1198.44,1160.1474999999998,3
26.198282386446635,8.476437931112336,7.503332592921628,27.303845882952093,31.370368184004473,10.202940752547766,30.120590963658067,42.13074886588179,-1.45,-0.85,0.6,-9.0,5.0,-1.0,-3.35,-2.2,684.2475000000001,71.1275,55.94,664.5,959.1,103.1,896.0274999999998,1770.1600000000003,3
29.560108254199612,5.73149195236284,6.523036102920173,23.075961518428652,27.739863013360395,8.276472678623424,41.692325432865935,40.497530788925886,2.8,-0.85,-0.15,-2.3,-1.8,-0.6,11.45,6.45,865.9600000000003,32.12749999999998,42.5275,527.2099999999999,766.2600000000002,68.14000000000001,1607.1475000000003,1598.4475,3
24.262110378118386,5.0990195135927845,5.054700782440045,23.732888572611635,16.09347693943108,11.515207336387824,40.821562929412686,34.23667624054649,6.15,-1.8,-1.55,4.55,-4.2,3.3,2.0,5.35,550.8275000000001,22.76,23.1475,542.5475,241.35999999999999,121.71000000000001,1662.4,1143.5275,3
24.424373072813967,7.987490219086343,4.795831523312719,21.883783950679096,18.980252896102307,12.14701609449827,30.104816890325043,26.914680009244027,1.45,-2.6,-1.8,1.4,-0.05,3.75,-6.3,6.1,594.4475,57.040000000000006,19.76,476.93999999999994,360.2475,133.4875,866.6100000000002,687.19,4
6.837397165588672,7.256031973468694,5.527205442174192,30.646370095004727,23.719190542680835,18.70561413052242,18.85735930611707,20.073614522551736,-1.75,-0.95,0.75,-6.0,1.5,4.7,2.7,-1.45,43.6875,51.74750000000002,29.9875,903.2,560.35,327.81,348.30999999999995,400.84749999999997,4
5.089204259999788,6.85200700525036,6.371812928829597,23.213142829009605,22.641775548750587,17.190113437671084,11.131037687475503,16.731706428215862,-0.9,-0.65,-2.0,4.35,2.55,2.0,-1.7,-3.95,25.09,46.527499999999996,36.6,519.9275,506.14750000000004,291.5,121.00999999999999,264.34749999999997,4
4.8373546489791295,7.003570517957251,7.280109889280518,25.836021365527625,15.350895739337167,11.783462988442743,9.486832980505138,16.804761230080004,0.3,-1.55,-2.7,10.6,-1.45,-1.45,0.8,-3.0,23.31,46.6475,45.71000000000001,555.1400000000001,233.54749999999999,136.74750000000003,89.36,273.4,4
3.9496835316262997,6.519202405202649,6.131883886702357,26.875639527274508,10.825894882179487,9.896969233053117,8.372574275573792,17.469974241537965,-1.1,-2.1,-1.6,7.0,-1.9,2.25,1.0,-0.9,14.390000000000004,38.09,35.040000000000006,673.3,113.59,92.8875,69.1,304.39000000000004,4
